record-152881	0.0	0.75	0.6666666666666667	0.6551724137931034	0.736842105263158	0.75	0.5	0.8461538461538461	0.8103448275862069	0.6451612903225806	0.6923076923076923	0.42105263157894735	0.7272727272727273	0.8275862068965517	0.6551724137931034	0.7272727272727273	0.56	0.6875	0.8387096774193549	0.5	0.7727272727272727	0.5	0.42105263157894735	0.6153846153846154	0.5714285714285714	0.7692307692307692	0.56	0.7674418604651163	0.6774193548387097	0.8070175438596492	0.6363636363636364	0.819672131147541	0.5	0.33333333333333337	0.125	0.5	0.6071428571428572	0.42105263157894735	0.42105263157894735	0.6551724137931034	0.6153846153846154	0.6153846153846154	0.7727272727272727	0.6923076923076923	0.42105263157894735	0.6153846153846154	0.42105263157894735	0.5714285714285714	0.6875	0.7857142857142857	0.55	0.5714285714285714	0.8	0.6153846153846154	0.6071428571428572	0.5454545454545454	0.38888888888888884	0.42105263157894735	0.4736842105263158	0.5714285714285714	0.8103448275862069	0.42105263157894735	0.5517241379310345	0.6	0.6666666666666667	0.5714285714285714	0.33333333333333337	0.6	0.5	0.33333333333333337	0.6153846153846154	0.5	0.7272727272727273	0.56	0.6	0.5	0.5	0.56	0.725	0.6666666666666667	0.5	0.23529411764705888	0.6666666666666667	0.5	0.56	0.736842105263158	0.42105263157894735	0.6538461538461539	0.6153846153846154	0.6153846153846154	0.42105263157894735	0.6551724137931034	0.7872340425531915	0.5	0.42105263157894735	0.42105263157894735	0.6666666666666667	0.42105263157894735	0.736842105263158	0.6071428571428572	0.7142857142857143	0.56	0.5	0.33333333333333337	0.5	0.7560975609756098	0.6538461538461539	0.4782608695652174	0.6764705882352942	0.6666666666666667	0.6764705882352942	0.6153846153846154	0.6	0.5	0.42105263157894735	0.6666666666666667	0.5	0.5	0.6153846153846154	0.6153846153846154	0.33333333333333337	0.6153846153846154	0.8571428571428572	0.6551724137931034	0.42105263157894735	0.8	0.6071428571428572	0.6551724137931034	0.6666666666666667	0.5	0.5714285714285714	0.7027027027027026	0.5	0.6153846153846154	0.7727272727272727	0.6875	0.5	0.6551724137931034	0.7	0.75	0.5714285714285714	0.6071428571428572	0.5714285714285714	0.5555555555555556	0.6551724137931034	0.5	0.8421052631578947	0.7272727272727273	0.6551724137931034	0.6071428571428572	0.5714285714285714	0.56	0.6666666666666667	0.5789473684210527	0.7272727272727273	0.5714285714285714	0.6153846153846154	0.5714285714285714	0.6071428571428572	0.65	0.5	0.6551724137931034	0.736842105263158	0.5	0.5	0.5	0.5714285714285714	0.8214285714285714	0.5714285714285714	0.5714285714285714	0.6875	0.8181818181818181	0.65	0.75	0.5	0.8235294117647058	0.5652173913043479	0.5714285714285714	0.5	0.736842105263158	0.7	0.5	0.5	0.7	0.6666666666666667	0.5555555555555556	0.5714285714285714	0.6153846153846154	0.6551724137931034	0.6875	0.736842105263158	0.56	0.42105263157894735	0.7027027027027026	0.5555555555555556	0.6451612903225806	0.5789473684210527	0.8333333333333334	0.5	0.7727272727272727	0.125	0.6153846153846154	0.56	0.5714285714285714	0.6153846153846154	0.6153846153846154	0.71875	0.5	0.8	0.8214285714285714	0.782608695652174	0.8214285714285714	0.5	0.56	0.6153846153846154	0.7142857142857143	0.6153846153846154	0.23529411764705888	0.7884615384615384	0.6071428571428572	0.6666666666666667	0.6875	0.33333333333333337	0.5	0.6	0.4736842105263158	0.42105263157894735	0.5714285714285714	0.5	0.7272727272727273	0.8421052631578947	0.6944444444444444	0.5	0.7272727272727273	0.6153846153846154	0.5	0.59375	0.7608695652173914	0.5	0.736842105263158	0.56	0.5	0.7674418604651163	0.736842105263158	0.5	0.42105263157894735	0.42105263157894735	0.6875	0.5	0.7631578947368421	0.7142857142857143	0.56	0.56	0.56	0.7272727272727273	0.5	0.717948717948718	0.4736842105263158	0.725	0.6451612903225806	0.5	0.42105263157894735	0.6363636363636364	0.5	0.4736842105263158	0.33333333333333337	0.42105263157894735	0.6153846153846154	0.6071428571428572	0.5	0.71875	0.42105263157894735	0.56	0.42105263157894735	0.42105263157894735	0.736842105263158	0.42105263157894735	0.5	0.736842105263158	0.5416666666666667	0.8333333333333334	0.6	0.56	0.6774193548387097	0.5416666666666667	0.8387096774193549	0.33333333333333337	0.6875	0.736842105263158	0.42105263157894735	0.5	0.33333333333333337	0.42105263157894735	0.42105263157894735	0.33333333333333337	0.6666666666666667	0.5	0.6	0.42105263157894735	0.6538461538461539	0.6071428571428572	0.5555555555555556	0.5925925925925926	0.6538461538461539	0.7727272727272727	0.7884615384615384	0.7027027027027026	0.6451612903225806	0.42105263157894735	0.42105263157894735	0.7441860465116279	0.6875	0.6153846153846154	0.42105263157894735	0.6363636363636364	0.6451612903225806	0.33333333333333337	0.33333333333333337	0.6363636363636364	0.5	0.42105263157894735	0.7560975609756098	0.6153846153846154	0.736842105263158	0.6551724137931034	0.6153846153846154	0.5	0.736842105263158	0.7142857142857143	0.6666666666666667	0.725	0.7608695652173914	0.5	0.6538461538461539	0.42105263157894735	0.42105263157894735	0.6764705882352942	0.7272727272727273	0.6538461538461539	0.5	0.33333333333333337	0.42105263157894735	0.33333333333333337	0.6875	0.42105263157894735	0.42105263157894735	0.56	0.6875	0.6363636363636364	0.6551724137931034	0.33333333333333337	0.6153846153846154	0.5	0.42105263157894735	0.5384615384615384	0.5555555555555556	0.5652173913043479	0.6875	0.42105263157894735	0.5	0.5	0.33333333333333337	0.42105263157894735	0.6153846153846154	0.6551724137931034	0.7692307692307692	0.6153846153846154	0.8333333333333334	0.6071428571428572	0.7272727272727273	0.5	0.33333333333333337	0.6153846153846154	0.42105263157894735	0.42105263157894735	0.6551724137931034	0.6875	0.6875	0.5714285714285714	0.7	0.6	0.6875	0.5	0.42105263157894735	0.6551724137931034	0.5714285714285714	0.5	0.7	0.5555555555555556	0.5	0.5714285714285714	0.5	0.8	0.7857142857142857	0.5	0.42105263157894735	0.42105263157894735	0.7	0.42105263157894735	0.7727272727272727	0.6875	0.5	0.5	0.5	0.5	0.5	0.5	0.6875	0.8571428571428572	0.5	0.5555555555555556	0.6153846153846154	0.5	0.6153846153846154	0.42105263157894735	0.5	0.5	0.6875	0.6551724137931034	0.6153846153846154	0.6666666666666667	0.6153846153846154	0.5	0.8125	0.7272727272727273	0.5	0.7142857142857143	0.6875	0.5652173913043479	0.5	0.7692307692307692	0.5	0.6551724137931034	0.5	0.5	0.7142857142857143	0.7142857142857143	0.5	0.33333333333333337	0.5714285714285714	0.5714285714285714	0.56	0.6551724137931034	0.6153846153846154	0.5	0.5	0.6153846153846154	0.56	0.5	0.6153846153846154	0.6153846153846154	0.55	0.736842105263158	0.23529411764705888	0.7027027027027026	0.42105263157894735	0.56	0.6666666666666667	0.7380952380952381	0.5	0.7	0.6875	0.8	0.5925925925925926	0.4736842105263158	0.7872340425531915	0.7727272727272727	0.42105263157894735	0.8	0.42105263157894735	0.6875	0.65	0.5	0.6071428571428572	0.5	0.7692307692307692	0.42105263157894735	0.5714285714285714	
record-153157	0.75	0.0	0.40625	0.5789473684210527	0.46341463414634143	0.5	0.6764705882352942	0.7323943661971831	0.6451612903225806	0.7333333333333334	0.5957446808510638	0.6764705882352942	0.41666666666666663	0.6825396825396826	0.6153846153846154	0.5384615384615384	0.5428571428571429	0.575	0.7205882352941176	0.5833333333333333	0.5918367346938775	0.5	0.6764705882352942	0.5428571428571429	0.6363636363636364	0.5681818181818181	0.5833333333333333	0.5833333333333333	0.5263157894736843	0.703125	0.6956521739130435	0.6615384615384615	0.5833333333333333	0.7142857142857143	0.75	0.6764705882352942	0.6153846153846154	0.6764705882352942	0.59375	0.5405405405405406	0.5833333333333333	0.5	0.5918367346938775	0.5333333333333333	0.6764705882352942	0.6216216216216216	0.6764705882352942	0.6764705882352942	0.6428571428571428	0.5333333333333333	0.7058823529411764	0.6363636363636364	0.5	0.5	0.6153846153846154	0.7297297297297297	0.7428571428571429	0.7142857142857143	0.7058823529411764	0.6764705882352942	0.6451612903225806	0.6363636363636364	0.6744186046511628	0.5294117647058824	0.5833333333333333	0.6764705882352942	0.6764705882352942	0.5294117647058824	0.6764705882352942	0.6764705882352942	0.6578947368421053	0.736842105263158	0.6744186046511628	0.5428571428571429	0.5	0.7142857142857143	0.6216216216216216	0.5833333333333333	0.625	0.5428571428571429	0.6764705882352942	0.7142857142857143	0.4545454545454546	0.7142857142857143	0.5833333333333333	0.6	0.6764705882352942	0.6111111111111112	0.5833333333333333	0.5428571428571429	0.6764705882352942	0.5405405405405406	0.6153846153846154	0.736842105263158	0.59375	0.6363636363636364	0.5833333333333333	0.6764705882352942	0.46341463414634143	0.5789473684210527	0.46153846153846156	0.5428571428571429	0.6764705882352942	0.6764705882352942	0.6216216216216216	0.5	0.6111111111111112	0.6111111111111112	0.6046511627906976	0.5	0.5365853658536586	0.5428571428571429	0.5714285714285714	0.6764705882352942	0.6764705882352942	0.5428571428571429	0.6764705882352942	0.6764705882352942	0.5833333333333333	0.5428571428571429	0.6764705882352942	0.5833333333333333	0.7746478873239436	0.6153846153846154	0.7142857142857143	0.5	0.6153846153846154	0.5789473684210527	0.5428571428571429	0.7142857142857143	0.6764705882352942	0.6595744680851063	0.6764705882352942	0.5428571428571429	0.5625	0.6428571428571428	0.7142857142857143	0.5405405405405406	0.65	0.46153846153846156	0.6363636363636364	0.6153846153846154	0.6764705882352942	0.65	0.5	0.6764705882352942	0.5789473684210527	0.41666666666666663	0.5789473684210527	0.5405405405405406	0.6764705882352942	0.6216216216216216	0.5833333333333333	0.7272727272727273	0.45945945945945943	0.7142857142857143	0.5833333333333333	0.6363636363636364	0.65	0.7647058823529411	0.6764705882352942	0.6153846153846154	0.5348837209302326	0.6764705882352942	0.6764705882352942	0.6764705882352942	0.6764705882352942	0.65	0.6764705882352942	0.6363636363636364	0.575	0.6666666666666667	0.6875	0.5365853658536586	0.6363636363636364	0.728813559322034	0.6285714285714286	0.6764705882352942	0.6764705882352942	0.5	0.36363636363636365	0.6363636363636364	0.6764705882352942	0.5	0.5	0.5789473684210527	0.6363636363636364	0.5428571428571429	0.5	0.37142857142857144	0.6	0.6216216216216216	0.6764705882352942	0.5348837209302326	0.6153846153846154	0.41666666666666663	0.7647058823529411	0.5818181818181818	0.6764705882352942	0.5319148936170213	0.7142857142857143	0.5833333333333333	0.6923076923076923	0.6764705882352942	0.5428571428571429	0.5428571428571429	0.4	0.5833333333333333	0.6363636363636364	0.65	0.607843137254902	0.6271186440677966	0.7142857142857143	0.5428571428571429	0.5	0.5714285714285714	0.6216216216216216	0.75	0.6779661016949152	0.6153846153846154	0.6216216216216216	0.6428571428571428	0.6764705882352942	0.7142857142857143	0.41666666666666663	0.7058823529411764	0.6363636363636364	0.6764705882352942	0.7142857142857143	0.575	0.6271186440677966	0.6521739130434783	0.59375	0.5	0.5428571428571429	0.7142857142857143	0.46153846153846156	0.6153846153846154	0.6764705882352942	0.5348837209302326	0.6216216216216216	0.6764705882352942	0.5833333333333333	0.5348837209302326	0.6764705882352942	0.7142857142857143	0.7142857142857143	0.41666666666666663	0.7142857142857143	0.5238095238095238	0.42105263157894735	0.6578947368421053	0.5428571428571429	0.6216216216216216	0.45945945945945943	0.6764705882352942	0.5869565217391304	0.6666666666666667	0.5957446808510638	0.5	0.6363636363636364	0.6363636363636364	0.5	0.6764705882352942	0.7058823529411764	0.6764705882352942	0.75	0.5833333333333333	0.5789473684210527	0.7142857142857143	0.4864864864864865	0.7142857142857143	0.6216216216216216	0.6764705882352942	0.6764705882352942	0.6	0.7142857142857143	0.6363636363636364	0.42500000000000004	0.6111111111111112	0.6071428571428572	0.5384615384615384	0.5428571428571429	0.5263157894736843	0.6486486486486487	0.6615384615384615	0.75	0.45945945945945943	0.5348837209302326	0.7142857142857143	0.7142857142857143	0.6764705882352942	0.6363636363636364	0.59375	0.7142857142857143	0.5	0.7027027027027026	0.6111111111111112	0.7142857142857143	0.6111111111111112	0.6153846153846154	0.5405405405405406	0.6052631578947368	0.5714285714285714	0.5319148936170213	0.6551724137931034	0.5348837209302326	0.5384615384615384	0.7142857142857143	0.7142857142857143	0.5918367346938775	0.41666666666666663	0.6216216216216216	0.6764705882352942	0.5365853658536586	0.45945945945945943	0.6764705882352942	0.7142857142857143	0.5	0.6764705882352942	0.6764705882352942	0.5333333333333333	0.6216216216216216	0.6	0.5789473684210527	0.6216216216216216	0.6764705882352942	0.6595744680851063	0.6363636363636364	0.5833333333333333	0.5652173913043479	0.6666666666666667	0.6666666666666667	0.6111111111111112	0.6764705882352942	0.6764705882352942	0.5	0.6428571428571428	0.5714285714285714	0.6764705882352942	0.6764705882352942	0.6764705882352942	0.6764705882352942	0.45945945945945943	0.7142857142857143	0.6764705882352942	0.5833333333333333	0.6097560975609756	0.46153846153846156	0.5405405405405406	0.6764705882352942	0.5833333333333333	0.7142857142857143	0.75	0.675	0.65	0.5454545454545454	0.45945945945945943	0.6764705882352942	0.6216216216216216	0.5833333333333333	0.7142857142857143	0.6363636363636364	0.5428571428571429	0.6153846153846154	0.6	0.5833333333333333	0.6551724137931034	0.6153846153846154	0.6097560975609756	0.6363636363636364	0.7142857142857143	0.5428571428571429	0.6764705882352942	0.6764705882352942	0.6153846153846154	0.5384615384615384	0.5	0.7142857142857143	0.5789473684210527	0.5714285714285714	0.575	0.7142857142857143	0.6764705882352942	0.6153846153846154	0.7142857142857143	0.7142857142857143	0.6153846153846154	0.6153846153846154	0.6764705882352942	0.6764705882352942	0.6363636363636364	0.6363636363636364	0.4651162790697675	0.6363636363636364	0.6764705882352942	0.6764705882352942	0.6153846153846154	0.6363636363636364	0.62	0.5	0.6764705882352942	0.6764705882352942	0.7142857142857143	0.6764705882352942	0.6764705882352942	0.6363636363636364	0.6097560975609756	0.6615384615384615	0.6764705882352942	0.6829268292682926	0.5833333333333333	0.6764705882352942	0.4545454545454546	0.7142857142857143	0.6764705882352942	0.6764705882352942	0.6097560975609756	0.5789473684210527	0.5428571428571429	0.5833333333333333	0.5	0.6764705882352942	0.5882352941176471	0.6097560975609756	0.6764705882352942	0.62	0.5	0.5882352941176471	0.7142857142857143	0.46341463414634143	0.6764705882352942	0.5789473684210527	0.7142857142857143	0.6764705882352942	0.46153846153846156	0.5365853658536586	0.6764705882352942	0.6764705882352942	0.6764705882352942	0.6764705882352942	0.5	0.5	0.5	0.6363636363636364	0.6764705882352942	0.4545454545454546	0.5428571428571429	0.6216216216216216	0.5428571428571429	0.5428571428571429	0.625	0.5348837209302326	0.75	0.5348837209302326	0.6363636363636364	0.6216216216216216	0.4545454545454546	0.64	0.5833333333333333	0.6153846153846154	0.45945945945945943	0.5849056603773585	0.5675675675675675	0.6666666666666667	0.7796610169491526	0.5625	0.6764705882352942	0.603448275862069	0.6363636363636364	0.32352941176470584	0.7647058823529411	0.6363636363636364	0.5	0.5882352941176471	0.46341463414634143	0.6363636363636364	0.6764705882352942	
record-153510	0.6666666666666667	0.40625	0.0	0.3928571428571429	0.5	0.40625	0.6153846153846154	0.734375	0.728813559322034	0.6285714285714286	0.6744186046511628	0.5	0.4516129032258065	0.7241379310344828	0.4482758620689655	0.4516129032258065	0.31999999999999995	0.5	0.7	0.4444444444444444	0.6666666666666667	0.5555555555555556	0.5	0.31999999999999995	0.5	0.5405405405405406	0.5517241379310345	0.5952380952380952	0.5757575757575757	0.7457627118644068	0.5833333333333333	0.7213114754098361	0.5	0.6153846153846154	0.6666666666666667	0.56	0.5	0.56	0.4347826086956522	0.4482758620689655	0.3846153846153846	0.31999999999999995	0.6363636363636364	0.6097560975609756	0.5	0.4444444444444444	0.5	0.6153846153846154	0.4516129032258065	0.6744186046511628	0.5416666666666667	0.5	0.6046511627906976	0.31999999999999995	0.3928571428571429	0.5925925925925926	0.6538461538461539	0.6153846153846154	0.5416666666666667	0.56	0.7068965517241379	0.56	0.5	0.36	0.31999999999999995	0.5	0.56	0.36	0.56	0.56	0.5	0.6551724137931034	0.5	0.31999999999999995	0.5	0.6153846153846154	0.5	0.3846153846153846	0.575	0.31999999999999995	0.6153846153846154	0.6153846153846154	0.25	0.56	0.3846153846153846	0.5405405405405406	0.56	0.42307692307692313	0.3846153846153846	0.3846153846153846	0.56	0.33333333333333337	0.6875	0.6551724137931034	0.5	0.56	0.3846153846153846	0.6153846153846154	0.5	0.4482758620689655	0.5428571428571429	0.31999999999999995	0.56	0.56	0.5	0.6097560975609756	0.42307692307692313	0.5357142857142857	0.5428571428571429	0.25	0.6216216216216216	0.31999999999999995	0.36	0.6153846153846154	0.6153846153846154	0.31999999999999995	0.56	0.56	0.3846153846153846	0.31999999999999995	0.56	0.3846153846153846	0.7419354838709677	0.5	0.6153846153846154	0.5365853658536586	0.5	0.4482758620689655	0.31999999999999995	0.56	0.5	0.65	0.6153846153846154	0.31999999999999995	0.6363636363636364	0.5454545454545454	0.6153846153846154	0.3928571428571429	0.6363636363636364	0.5	0.4347826086956522	0.5	0.56	0.59375	0.3928571428571429	0.56	0.6666666666666667	0.4516129032258065	0.4482758620689655	0.3928571428571429	0.6153846153846154	0.4444444444444444	0.5	0.6799999999999999	0.4516129032258065	0.6153846153846154	0.5517241379310345	0.5	0.5483870967741935	0.7307692307692308	0.6153846153846154	0.5	0.5789473684210527	0.5	0.56	0.6153846153846154	0.56	0.7142857142857143	0.6153846153846154	0.56	0.4516129032258065	0.7090909090909091	0.6799999999999999	0.5428571428571429	0.56	0.6799999999999999	0.5555555555555556	0.5	0.6153846153846154	0.5789473684210527	0.2692307692307693	0.5	0.56	0.3928571428571429	0.25	0.5	0.56	0.3846153846153846	0.3928571428571429	0.4	0.5789473684210527	0.4444444444444444	0.5	0.5789473684210527	0.59375	0.5	0.7307692307692308	0.6470588235294117	0.56	0.6363636363636364	0.6153846153846154	0.3846153846153846	0.5517241379310345	0.56	0.31999999999999995	0.3846153846153846	0.3793103448275862	0.5	0.653061224489796	0.6909090909090909	0.6222222222222222	0.7142857142857143	0.6153846153846154	0.5	0.17391304347826086	0.5428571428571429	0.5	0.6666666666666667	0.7222222222222222	0.3928571428571429	0.3846153846153846	0.5	0.6153846153846154	0.56	0.5454545454545454	0.6	0.4347826086956522	0.56	0.6153846153846154	0.4516129032258065	0.6909090909090909	0.6052631578947368	0.4347826086956522	0.4	0.25	0.6153846153846154	0.6216216216216216	0.6595744680851063	0.56	0.5	0.4444444444444444	0.56	0.5609756097560976	0.5789473684210527	0.5	0.6153846153846154	0.6153846153846154	0.5	0.6153846153846154	0.48571428571428577	0.4545454545454546	0.5517241379310345	0.4444444444444444	0.3846153846153846	0.4	0.5	0.6341463414634146	0.5416666666666667	0.5384615384615384	0.5454545454545454	0.56	0.5	0.5428571428571429	0.5	0.5416666666666667	0.56	0.6666666666666667	0.31999999999999995	0.5	0.6153846153846154	0.4838709677419355	0.6153846153846154	0.4444444444444444	0.5	0.5	0.6153846153846154	0.6153846153846154	0.4347826086956522	0.5405405405405406	0.42307692307692313	0.62	0.5	0.3846153846153846	0.4838709677419355	0.5357142857142857	0.7213114754098361	0.6666666666666667	0.5	0.5405405405405406	0.6153846153846154	0.56	0.6153846153846154	0.5	0.4347826086956522	0.56	0.5789473684210527	0.6071428571428572	0.42307692307692313	0.6153846153846154	0.42307692307692313	0.4482758620689655	0.33333333333333337	0.4285714285714286	0.36	0.5714285714285714	0.6730769230769231	0.5405405405405406	0.5	0.6666666666666667	0.6153846153846154	0.6363636363636364	0.4516129032258065	0.4444444444444444	0.6153846153846154	0.5428571428571429	0.5454545454545454	0.5	0.6153846153846154	0.5	0.5	0.56	0.575	0.4444444444444444	0.5405405405405406	0.3928571428571429	0.5	0.56	0.6153846153846154	0.5	0.31999999999999995	0.6097560975609756	0.6875	0.5555555555555556	0.42307692307692313	0.6153846153846154	0.6153846153846154	0.5	0.5	0.36	0.5	0.5	0.6153846153846154	0.56	0.5454545454545454	0.56	0.6153846153846154	0.31999999999999995	0.5	0.5428571428571429	0.33333333333333337	0.56	0.31999999999999995	0.6153846153846154	0.6666666666666667	0.5806451612903225	0.5483870967741935	0.5	0.4	0.6153846153846154	0.4444444444444444	0.4444444444444444	0.6153846153846154	0.56	0.31999999999999995	0.5	0.5789473684210527	0.5	0.6730769230769231	0.5483870967741935	0.4516129032258065	0.5	0.6153846153846154	0.3846153846153846	0.5	0.56	0.5	0.5	0.4516129032258065	0.56	0.4482758620689655	0.36	0.6285714285714286	0.6153846153846154	0.6153846153846154	0.5	0.56	0.6153846153846154	0.5	0.5	0.6153846153846154	0.6153846153846154	0.5	0.625	0.5	0.56	0.6153846153846154	0.56	0.5	0.56	0.6666666666666667	0.5	0.6153846153846154	0.6153846153846154	0.56	0.56	0.56	0.4347826086956522	0.5	0.7213114754098361	0.6153846153846154	0.59375	0.4444444444444444	0.5	0.31999999999999995	0.56	0.6153846153846154	0.6153846153846154	0.6285714285714286	0.4482758620689655	0.4444444444444444	0.3846153846153846	0.31999999999999995	0.56	0.6304347826086957	0.5454545454545454	0.56	0.6363636363636364	0.3448275862068966	0.6071428571428572	0.6153846153846154	0.5405405405405406	0.6153846153846154	0.4482758620689655	0.6153846153846154	0.5	0.4545454545454546	0.5428571428571429	0.6153846153846154	0.56	0.5	0.56	0.3846153846153846	0.3928571428571429	0.31999999999999995	0.56	0.56	0.25	0.3846153846153846	0.5	0.25	0.25	0.40909090909090906	0.5789473684210527	0.6666666666666667	0.5405405405405406	0.56	0.3846153846153846	0.17391304347826086	0.6888888888888889	0.4444444444444444	0.4482758620689655	0.5	0.653061224489796	0.4285714285714286	0.5416666666666667	0.7647058823529411	0.6363636363636364	0.5	0.6909090909090909	0.5	0.4	0.7307692307692308	0.4347826086956522	0.33333333333333337	0.5555555555555556	0.5789473684210527	0.56	0.56	
record-153758	0.6551724137931034	0.5789473684210527	0.3928571428571429	0.0	0.6428571428571428	0.5	0.6551724137931034	0.782608695652174	0.78125	0.5833333333333333	0.6956521739130435	0.5555555555555556	0.5833333333333333	0.7580645161290323	0.5882352941176471	0.5428571428571429	0.5	0.4545454545454546	0.7727272727272727	0.5483870967741935	0.74	0.5517241379310345	0.6071428571428572	0.4482758620689655	0.5555555555555556	0.6097560975609756	0.5483870967741935	0.7346938775510203	0.6486486486486487	0.7777777777777778	0.6153846153846154	0.734375	0.59375	0.6071428571428572	0.6551724137931034	0.5555555555555556	0.5454545454545454	0.6071428571428572	0.43999999999999995	0.6666666666666667	0.4482758620689655	0.5	0.7142857142857143	0.6666666666666667	0.6071428571428572	0.5	0.6071428571428572	0.6071428571428572	0.5	0.6956521739130435	0.6428571428571428	0.5555555555555556	0.7142857142857143	0.5483870967741935	0.5454545454545454	0.6333333333333333	0.6428571428571428	0.6071428571428572	0.5925925925925926	0.6071428571428572	0.7419354838709677	0.6071428571428572	0.5428571428571429	0.5333333333333333	0.5483870967741935	0.6071428571428572	0.5555555555555556	0.48275862068965514	0.6071428571428572	0.6071428571428572	0.4482758620689655	0.6451612903225806	0.5428571428571429	0.4482758620689655	0.5833333333333333	0.6551724137931034	0.6363636363636364	0.5483870967741935	0.6046511627906976	0.5	0.6551724137931034	0.6071428571428572	0.4482758620689655	0.6551724137931034	0.5483870967741935	0.575	0.6071428571428572	0.5333333333333333	0.5	0.5	0.5555555555555556	0.5454545454545454	0.6799999999999999	0.6451612903225806	0.5	0.6071428571428572	0.5	0.6551724137931034	0.6097560975609756	0.5	0.5	0.5	0.6071428571428572	0.5555555555555556	0.5	0.6666666666666667	0.5333333333333333	0.5806451612903225	0.65	0.4482758620689655	0.65	0.3928571428571429	0.5333333333333333	0.6071428571428572	0.6551724137931034	0.5	0.6071428571428572	0.5555555555555556	0.5483870967741935	0.5	0.5	0.5	0.7538461538461538	0.5882352941176471	0.6071428571428572	0.6595744680851063	0.5454545454545454	0.5882352941176471	0.3928571428571429	0.6071428571428572	0.5555555555555556	0.6097560975609756	0.6071428571428572	0.5	0.7142857142857143	0.5428571428571429	0.6071428571428572	0.6285714285714286	0.5882352941176471	0.65	0.5	0.5	0.6071428571428572	0.5882352941176471	0.5	0.5555555555555556	0.7704918032786885	0.5428571428571429	0.5882352941176471	0.5	0.6071428571428572	0.3928571428571429	0.59375	0.6666666666666667	0.6216216216216216	0.6551724137931034	0.5483870967741935	0.5555555555555556	0.5	0.7142857142857143	0.6551724137931034	0.5882352941176471	0.6428571428571428	0.6071428571428572	0.6071428571428572	0.6071428571428572	0.6071428571428572	0.728813559322034	0.6551724137931034	0.6071428571428572	0.5	0.7868852459016393	0.6666666666666667	0.65	0.6071428571428572	0.7454545454545455	0.5	0.6071428571428572	0.6551724137931034	0.6428571428571428	0.4516129032258065	0.5	0.6071428571428572	0.6285714285714286	0.4482758620689655	0.5454545454545454	0.6071428571428572	0.4482758620689655	0.5454545454545454	0.5833333333333333	0.6428571428571428	0.5	0.5555555555555556	0.6097560975609756	0.5454545454545454	0.6578947368421053	0.6153846153846154	0.736842105263158	0.5555555555555556	0.7142857142857143	0.6551724137931034	0.5	0.5483870967741935	0.5555555555555556	0.5	0.4482758620689655	0.5714285714285714	0.5	0.6981132075471699	0.75	0.7254901960784313	0.728813559322034	0.6071428571428572	0.5	0.3928571428571429	0.5789473684210527	0.5483870967741935	0.6551724137931034	0.736842105263158	0.5	0.5	0.5	0.6551724137931034	0.6071428571428572	0.6216216216216216	0.6428571428571428	0.5555555555555556	0.6071428571428572	0.6551724137931034	0.6216216216216216	0.75	0.6666666666666667	0.5	0.5	0.33333333333333337	0.6551724137931034	0.5789473684210527	0.7058823529411764	0.6071428571428572	0.6097560975609756	0.4482758620689655	0.5555555555555556	0.6808510638297872	0.6428571428571428	0.5555555555555556	0.6551724137931034	0.6551724137931034	0.6923076923076923	0.6551724137931034	0.6666666666666667	0.65	0.59375	0.59375	0.3928571428571429	0.5	0.6071428571428572	0.6888888888888889	0.5925925925925926	0.6363636363636364	0.725	0.5555555555555556	0.5555555555555556	0.6829268292682926	0.6071428571428572	0.5925925925925926	0.5555555555555556	0.6551724137931034	0.5	0.5882352941176471	0.5555555555555556	0.6111111111111112	0.6551724137931034	0.5	0.6071428571428572	0.5555555555555556	0.6428571428571428	0.5555555555555556	0.5555555555555556	0.6744186046511628	0.48275862068965514	0.7142857142857143	0.5428571428571429	0.5	0.6111111111111112	0.48275862068965514	0.791044776119403	0.6551724137931034	0.6216216216216216	0.6097560975609756	0.5555555555555556	0.6551724137931034	0.6551724137931034	0.5555555555555556	0.43999999999999995	0.6551724137931034	0.7045454545454546	0.6	0.48275862068965514	0.6551724137931034	0.5333333333333333	0.5	0.4516129032258065	0.5757575757575757	0.48275862068965514	0.6875	0.7142857142857143	0.6428571428571428	0.4545454545454546	0.7	0.6551724137931034	0.6595744680851063	0.6578947368421053	0.5	0.6551724137931034	0.5789473684210527	0.6216216216216216	0.6071428571428572	0.6071428571428572	0.5789473684210527	0.6071428571428572	0.5555555555555556	0.6046511627906976	0.5483870967741935	0.6744186046511628	0.5454545454545454	0.5	0.5	0.6428571428571428	0.6153846153846154	0.4482758620689655	0.6666666666666667	0.7058823529411764	0.5517241379310345	0.48275862068965514	0.6071428571428572	0.6071428571428572	0.6153846153846154	0.5833333333333333	0.5333333333333333	0.6071428571428572	0.6071428571428572	0.6551724137931034	0.6071428571428572	0.6216216216216216	0.6551724137931034	0.5555555555555556	0.33333333333333337	0.6216216216216216	0.6153846153846154	0.5	0.6071428571428572	0.5	0.6071428571428572	0.6551724137931034	0.53125	0.5882352941176471	0.3846153846153846	0.5833333333333333	0.6071428571428572	0.4482758620689655	0.5	0.6071428571428572	0.5555555555555556	0.5	0.5454545454545454	0.6428571428571428	0.5	0.736842105263158	0.4516129032258065	0.5833333333333333	0.43999999999999995	0.5555555555555556	0.5483870967741935	0.6071428571428572	0.5	0.5	0.5833333333333333	0.6216216216216216	0.6071428571428572	0.6285714285714286	0.48275862068965514	0.6923076923076923	0.5555555555555556	0.6071428571428572	0.5882352941176471	0.6071428571428572	0.6071428571428572	0.5454545454545454	0.5454545454545454	0.6071428571428572	0.6071428571428572	0.5555555555555556	0.6981132075471699	0.6363636363636364	0.6071428571428572	0.6551724137931034	0.5555555555555556	0.5882352941176471	0.6071428571428572	0.6595744680851063	0.5833333333333333	0.6071428571428572	0.6071428571428572	0.6071428571428572	0.6071428571428572	0.5555555555555556	0.5555555555555556	0.5428571428571429	0.7727272727272727	0.6071428571428572	0.5454545454545454	0.5483870967741935	0.5555555555555556	0.5483870967741935	0.6551724137931034	0.6071428571428572	0.6071428571428572	0.6216216216216216	0.5882352941176471	0.5	0.4482758620689655	0.5	0.6071428571428572	0.6799999999999999	0.6216216216216216	0.5555555555555556	0.6595744680851063	0.5428571428571429	0.5517241379310345	0.6551724137931034	0.6744186046511628	0.6551724137931034	0.5882352941176471	0.6551724137931034	0.6071428571428572	0.5789473684210527	0.5789473684210527	0.6551724137931034	0.6071428571428572	0.6071428571428572	0.6071428571428572	0.5483870967741935	0.6285714285714286	0.5483870967741935	0.6071428571428572	0.6071428571428572	0.5	0.4482758620689655	0.5483870967741935	0.4482758620689655	0.4482758620689655	0.5925925925925926	0.6097560975609756	0.6551724137931034	0.6428571428571428	0.6071428571428572	0.33333333333333337	0.5	0.7083333333333333	0.3928571428571429	0.6285714285714286	0.5833333333333333	0.7222222222222222	0.5757575757575757	0.5384615384615384	0.7547169811320755	0.7142857142857143	0.6071428571428572	0.7068965517241379	0.5	0.5	0.6666666666666667	0.5555555555555556	0.4516129032258065	0.5517241379310345	0.6097560975609756	0.6071428571428572	0.6071428571428572	
record-153870	0.736842105263158	0.46341463414634143	0.5	0.6428571428571428	0.0	0.6	0.7027027027027026	0.6521739130434783	0.6615384615384615	0.6956521739130435	0.6470588235294117	0.6285714285714286	0.5	0.65625	0.6097560975609756	0.5	0.5789473684210527	0.5714285714285714	0.5483870967741935	0.5405405405405406	0.5306122448979591	0.725	0.6285714285714286	0.5	0.7027027027027026	0.5333333333333333	0.7142857142857143	0.5208333333333333	0.5609756097560976	0.5666666666666667	0.5	0.59375	0.5	0.7027027027027026	0.736842105263158	0.736842105263158	0.5384615384615384	0.7027027027027026	0.6666666666666667	0.6097560975609756	0.4571428571428572	0.4571428571428572	0.56	0.43181818181818177	0.6285714285714286	0.5789473684210527	0.6285714285714286	0.736842105263158	0.5	0.5918367346938775	0.6944444444444444	0.7027027027027026	0.56	0.4117647058823529	0.575	0.717948717948718	0.7631578947368421	0.7027027027027026	0.6944444444444444	0.7027027027027026	0.5	0.6666666666666667	0.6046511627906976	0.5675675675675675	0.5	0.7027027027027026	0.7027027027027026	0.5277777777777778	0.736842105263158	0.6666666666666667	0.6829268292682926	0.7560975609756098	0.5	0.65	0.5365853658536586	0.736842105263158	0.5789473684210527	0.5789473684210527	0.4666666666666667	0.5	0.7692307692307692	0.7027027027027026	0.6153846153846154	0.7027027027027026	0.5789473684210527	0.4285714285714286	0.736842105263158	0.5675675675675675	0.6153846153846154	0.5405405405405406	0.6666666666666667	0.5	0.6111111111111112	0.7560975609756098	0.7027027027027026	0.6666666666666667	0.5405405405405406	0.7027027027027026	0.26315789473684215	0.6097560975609756	0.5348837209302326	0.5	0.736842105263158	0.736842105263158	0.65	0.31707317073170727	0.5277777777777778	0.5675675675675675	0.3846153846153846	0.6153846153846154	0.5	0.65	0.48571428571428577	0.7027027027027026	0.7027027027027026	0.5	0.6666666666666667	0.6666666666666667	0.5	0.5	0.6666666666666667	0.5	0.6363636363636364	0.575	0.7027027027027026	0.46808510638297873	0.6097560975609756	0.5384615384615384	0.5789473684210527	0.6666666666666667	0.6666666666666667	0.6799999999999999	0.7027027027027026	0.5405405405405406	0.5882352941176471	0.5714285714285714	0.7027027027027026	0.5	0.7333333333333334	0.46341463414634143	0.6666666666666667	0.6097560975609756	0.7027027027027026	0.575	0.575	0.6666666666666667	0.6451612903225806	0.5	0.5384615384615384	0.5384615384615384	0.736842105263158	0.5789473684210527	0.65	0.8157894736842105	0.42105263157894735	0.736842105263158	0.6829268292682926	0.7027027027027026	0.6097560975609756	0.8157894736842105	0.7027027027027026	0.575	0.35	0.6285714285714286	0.6666666666666667	0.736842105263158	0.7027027027027026	0.576271186440678	0.736842105263158	0.7027027027027026	0.3783783783783784	0.5932203389830508	0.8157894736842105	0.5348837209302326	0.6666666666666667	0.6071428571428572	0.6923076923076923	0.6666666666666667	0.7027027027027026	0.3076923076923077	0.5384615384615384	0.7027027027027026	0.6666666666666667	0.5	0.5	0.5	0.7027027027027026	0.5789473684210527	0.5384615384615384	0.42105263157894735	0.3076923076923077	0.5405405405405406	0.6666666666666667	0.26315789473684215	0.6744186046511628	0.42105263157894735	0.7837837837837838	0.65	0.736842105263158	0.5882352941176471	0.7027027027027026	0.5789473684210527	0.6153846153846154	0.736842105263158	0.4571428571428572	0.4117647058823529	0.36111111111111116	0.6153846153846154	0.5818181818181818	0.6229508196721312	0.52	0.5	0.7692307692307692	0.5789473684210527	0.5789473684210527	0.5681818181818181	0.65	0.7692307692307692	0.6721311475409837	0.5384615384615384	0.5789473684210527	0.46153846153846156	0.7027027027027026	0.7027027027027026	0.46153846153846156	0.7297297297297297	0.5882352941176471	0.7027027027027026	0.736842105263158	0.46153846153846156	0.6666666666666667	0.5227272727272727	0.6666666666666667	0.5	0.5405405405405406	0.736842105263158	0.5348837209302326	0.4693877551020408	0.736842105263158	0.5	0.6829268292682926	0.736842105263158	0.5800000000000001	0.5	0.7027027027027026	0.7027027027027026	0.7027027027027026	0.46153846153846156	0.736842105263158	0.375	0.29729729729729726	0.65	0.4571428571428572	0.5789473684210527	0.5365853658536586	0.7027027027027026	0.5833333333333333	0.6944444444444444	0.5918367346938775	0.46153846153846156	0.7027027027027026	0.6285714285714286	0.3846153846153846	0.7027027027027026	0.6944444444444444	0.6666666666666667	0.7692307692307692	0.5	0.6097560975609756	0.7692307692307692	0.4473684210526315	0.736842105263158	0.65	0.7027027027027026	0.7027027027027026	0.5957446808510638	0.736842105263158	0.6666666666666667	0.3902439024390244	0.675	0.603448275862069	0.46153846153846156	0.5	0.525	0.675	0.6764705882352942	0.736842105263158	0.5714285714285714	0.5333333333333333	0.736842105263158	0.7027027027027026	0.7027027027027026	0.7027027027027026	0.6666666666666667	0.6666666666666667	0.4651162790697675	0.7560975609756098	0.6052631578947368	0.736842105263158	0.5675675675675675	0.6097560975609756	0.575	0.5641025641025641	0.48571428571428577	0.56	0.65	0.3902439024390244	0.6046511627906976	0.7692307692307692	0.736842105263158	0.46808510638297873	0.33333333333333337	0.6153846153846154	0.7027027027027026	0.46341463414634143	0.5365853658536586	0.6285714285714286	0.7027027027027026	0.5	0.6666666666666667	0.6666666666666667	0.5625	0.5789473684210527	0.35	0.5384615384615384	0.6153846153846154	0.736842105263158	0.5	0.5681818181818181	0.5	0.4666666666666667	0.6111111111111112	0.6923076923076923	0.5277777777777778	0.7027027027027026	0.7027027027027026	0.42500000000000004	0.5714285714285714	0.5277777777777778	0.6285714285714286	0.6285714285714286	0.7027027027027026	0.6666666666666667	0.6046511627906976	0.7027027027027026	0.736842105263158	0.5405405405405406	0.5365853658536586	0.42500000000000004	0.575	0.6666666666666667	0.5405405405405406	0.7027027027027026	0.7692307692307692	0.6666666666666667	0.6428571428571428	0.6923076923076923	0.5	0.7027027027027026	0.6829268292682926	0.6153846153846154	0.7027027027027026	0.6666666666666667	0.4571428571428572	0.575	0.5652173913043479	0.6829268292682926	0.603448275862069	0.6428571428571428	0.5714285714285714	0.7027027027027026	0.7027027027027026	0.5405405405405406	0.6285714285714286	0.736842105263158	0.6428571428571428	0.46153846153846156	0.5	0.7027027027027026	0.575	0.48571428571428577	0.5714285714285714	0.736842105263158	0.7027027027027026	0.6428571428571428	0.7027027027027026	0.7027027027027026	0.6097560975609756	0.5384615384615384	0.7027027027027026	0.736842105263158	0.6666666666666667	0.5555555555555556	0.5625	0.6666666666666667	0.7027027027027026	0.736842105263158	0.6097560975609756	0.6666666666666667	0.56	0.5365853658536586	0.7027027027027026	0.7027027027027026	0.7027027027027026	0.6666666666666667	0.6666666666666667	0.6666666666666667	0.42105263157894735	0.6363636363636364	0.7027027027027026	0.6097560975609756	0.6153846153846154	0.6285714285714286	0.5405405405405406	0.6666666666666667	0.7027027027027026	0.7027027027027026	0.5714285714285714	0.5384615384615384	0.6153846153846154	0.5789473684210527	0.5	0.6666666666666667	0.6363636363636364	0.5	0.736842105263158	0.56	0.42105263157894735	0.6923076923076923	0.7027027027027026	0.5333333333333333	0.7027027027027026	0.5384615384615384	0.7027027027027026	0.6285714285714286	0.46341463414634143	0.6595744680851063	0.7027027027027026	0.6666666666666667	0.6666666666666667	0.736842105263158	0.4117647058823529	0.45945945945945943	0.4117647058823529	0.6666666666666667	0.6666666666666667	0.4117647058823529	0.4117647058823529	0.6153846153846154	0.4571428571428572	0.4571428571428572	0.6176470588235294	0.5652173913043479	0.736842105263158	0.3902439024390244	0.736842105263158	0.5	0.5405405405405406	0.607843137254902	0.6153846153846154	0.575	0.5	0.631578947368421	0.6341463414634146	0.6944444444444444	0.8095238095238095	0.5882352941176471	0.6285714285714286	0.6	0.7027027027027026	0.42105263157894735	0.8157894736842105	0.6666666666666667	0.5384615384615384	0.725	0.5	0.6666666666666667	0.736842105263158	
record-154548	0.75	0.5	0.40625	0.5	0.6	0.0	0.7142857142857143	0.7671232876712328	0.7462686567164178	0.6744186046511628	0.6799999999999999	0.6363636363636364	0.5	0.7611940298507462	0.5	0.575	0.5833333333333333	0.6097560975609756	0.7746478873239436	0.5428571428571429	0.7454545454545455	0.5882352941176471	0.6363636363636364	0.5428571428571429	0.6363636363636364	0.6304347826086957	0.5833333333333333	0.6923076923076923	0.6341463414634146	0.7424242424242424	0.5714285714285714	0.7571428571428571	0.5833333333333333	0.7142857142857143	0.75	0.6764705882352942	0.5	0.6764705882352942	0.59375	0.5405405405405406	0.5	0.5	0.6730769230769231	0.625	0.6363636363636364	0.5428571428571429	0.6363636363636364	0.7142857142857143	0.575	0.6799999999999999	0.6666666666666667	0.6363636363636364	0.6981132075471699	0.5428571428571429	0.5789473684210527	0.6176470588235294	0.7428571428571429	0.7142857142857143	0.6666666666666667	0.6764705882352942	0.7076923076923076	0.6764705882352942	0.5384615384615384	0.48484848484848486	0.5	0.6363636363636364	0.6764705882352942	0.5294117647058824	0.6764705882352942	0.6764705882352942	0.6216216216216216	0.7027027027027026	0.6744186046511628	0.5833333333333333	0.6097560975609756	0.7142857142857143	0.6216216216216216	0.5833333333333333	0.625	0.40625	0.7142857142857143	0.7142857142857143	0.4545454545454546	0.6764705882352942	0.5428571428571429	0.6304347826086957	0.6764705882352942	0.48484848484848486	0.5428571428571429	0.4545454545454546	0.6764705882352942	0.5	0.736842105263158	0.7027027027027026	0.6363636363636364	0.6764705882352942	0.4545454545454546	0.7142857142857143	0.5681818181818181	0.5789473684210527	0.6046511627906976	0.5428571428571429	0.6764705882352942	0.6764705882352942	0.6216216216216216	0.5652173913043479	0.48484848484848486	0.6111111111111112	0.5365853658536586	0.5428571428571429	0.6666666666666667	0.5833333333333333	0.48484848484848486	0.7142857142857143	0.7142857142857143	0.40625	0.6764705882352942	0.6764705882352942	0.5	0.4545454545454546	0.6764705882352942	0.5	0.7391304347826086	0.5405405405405406	0.7142857142857143	0.62	0.5789473684210527	0.5405405405405406	0.4545454545454546	0.6764705882352942	0.6363636363636364	0.5681818181818181	0.7142857142857143	0.4545454545454546	0.6730769230769231	0.6097560975609756	0.7142857142857143	0.4117647058823529	0.65	0.6363636363636364	0.59375	0.5405405405405406	0.6764705882352942	0.6153846153846154	0.5	0.6764705882352942	0.734375	0.575	0.5405405405405406	0.5405405405405406	0.7142857142857143	0.5833333333333333	0.4545454545454546	0.6451612903225806	0.6097560975609756	0.7142857142857143	0.5	0.6363636363636364	0.5789473684210527	0.6875	0.7142857142857143	0.5789473684210527	0.6304347826086957	0.6363636363636364	0.6764705882352942	0.7142857142857143	0.6764705882352942	0.734375	0.7142857142857143	0.6764705882352942	0.5384615384615384	0.7096774193548387	0.6451612903225806	0.6956521739130435	0.6764705882352942	0.728813559322034	0.6285714285714286	0.6363636363636364	0.7142857142857143	0.6304347826086957	0.4117647058823529	0.6363636363636364	0.6764705882352942	0.4571428571428572	0.40625	0.5	0.6764705882352942	0.5	0.4571428571428572	0.6097560975609756	0.6595744680851063	0.5833333333333333	0.6363636363636364	0.6304347826086957	0.65	0.6428571428571428	0.7647058823529411	0.7	0.6764705882352942	0.6981132075471699	0.7142857142857143	0.5833333333333333	0.6578947368421053	0.6764705882352942	0.4545454545454546	0.5	0.5263157894736843	0.6216216216216216	0.7068965517241379	0.7538461538461538	0.7090909090909091	0.734375	0.7142857142857143	0.5428571428571429	0.5	0.5714285714285714	0.6216216216216216	0.75	0.7619047619047619	0.4571428571428572	0.5428571428571429	0.575	0.7142857142857143	0.6764705882352942	0.6744186046511628	0.7058823529411764	0.59375	0.6764705882352942	0.7142857142857143	0.575	0.734375	0.5909090909090908	0.59375	0.5384615384615384	0.4545454545454546	0.7142857142857143	0.6046511627906976	0.7142857142857143	0.6764705882352942	0.6595744680851063	0.6216216216216216	0.6764705882352942	0.6666666666666667	0.6875	0.6363636363636364	0.7142857142857143	0.7142857142857143	0.6428571428571428	0.7142857142857143	0.6521739130434783	0.5365853658536586	0.6216216216216216	0.5428571428571429	0.5428571428571429	0.5384615384615384	0.6363636363636364	0.6458333333333333	0.6666666666666667	0.5652173913043479	0.6428571428571428	0.6764705882352942	0.6363636363636364	0.6046511627906976	0.6363636363636364	0.6666666666666667	0.6764705882352942	0.75	0.5	0.5405405405405406	0.7142857142857143	0.5263157894736843	0.7142857142857143	0.6216216216216216	0.6363636363636364	0.6363636363636364	0.6875	0.7142857142857143	0.59375	0.6304347826086957	0.6111111111111112	0.7	0.6428571428571428	0.5428571428571429	0.6341463414634146	0.5714285714285714	0.7746478873239436	0.75	0.6744186046511628	0.6875	0.7142857142857143	0.6764705882352942	0.7142857142857143	0.6363636363636364	0.59375	0.6764705882352942	0.6875	0.6666666666666667	0.48484848484848486	0.7142857142857143	0.5294117647058824	0.5789473684210527	0.4571428571428572	0.4411764705882353	0.48484848484848486	0.6470588235294117	0.7213114754098361	0.6304347826086957	0.45945945945945943	0.75	0.7142857142857143	0.6981132075471699	0.575	0.5428571428571429	0.7142857142857143	0.6046511627906976	0.6097560975609756	0.6363636363636364	0.7142857142857143	0.6046511627906976	0.6363636363636364	0.6764705882352942	0.625	0.5833333333333333	0.6595744680851063	0.5	0.6578947368421053	0.6764705882352942	0.6304347826086957	0.6046511627906976	0.5	0.5957446808510638	0.7142857142857143	0.6285714285714286	0.5294117647058824	0.7142857142857143	0.7142857142857143	0.6666666666666667	0.6097560975609756	0.4375	0.6363636363636364	0.6363636363636364	0.7142857142857143	0.6764705882352942	0.6097560975609756	0.6764705882352942	0.7142857142857143	0.5	0.575	0.6363636363636364	0.5405405405405406	0.6764705882352942	0.5428571428571429	0.7142857142857143	0.75	0.641025641025641	0.5405405405405406	0.5454545454545454	0.5384615384615384	0.7142857142857143	0.6578947368421053	0.5428571428571429	0.7142857142857143	0.6764705882352942	0.5	0.5405405405405406	0.6595744680851063	0.6578947368421053	0.7	0.5789473684210527	0.5384615384615384	0.6363636363636364	0.7142857142857143	0.4545454545454546	0.6363636363636364	0.6764705882352942	0.5405405405405406	0.6428571428571428	0.6097560975609756	0.6764705882352942	0.5	0.48484848484848486	0.6744186046511628	0.7142857142857143	0.7142857142857143	0.5789473684210527	0.6764705882352942	0.7142857142857143	0.5789473684210527	0.5	0.7142857142857143	0.7142857142857143	0.6363636363636364	0.6842105263157895	0.653061224489796	0.6764705882352942	0.7142857142857143	0.6764705882352942	0.5405405405405406	0.6764705882352942	0.6730769230769231	0.575	0.7142857142857143	0.7142857142857143	0.6764705882352942	0.6764705882352942	0.6764705882352942	0.59375	0.6097560975609756	0.7571428571428571	0.7142857142857143	0.5789473684210527	0.5	0.6363636363636364	0.4545454545454546	0.6764705882352942	0.7142857142857143	0.7142857142857143	0.6744186046511628	0.5405405405405406	0.5428571428571429	0.5833333333333333	0.40625	0.6764705882352942	0.6909090909090909	0.6428571428571428	0.6764705882352942	0.6470588235294117	0.5384615384615384	0.6285714285714286	0.7142857142857143	0.6595744680851063	0.7142857142857143	0.5405405405405406	0.7142857142857143	0.6363636363636364	0.6046511627906976	0.5714285714285714	0.7142857142857143	0.6764705882352942	0.6363636363636364	0.6764705882352942	0.5	0.5	0.5428571428571429	0.6764705882352942	0.6764705882352942	0.4545454545454546	0.5	0.5833333333333333	0.4545454545454546	0.4545454545454546	0.5806451612903225	0.6304347826086957	0.75	0.6595744680851063	0.6764705882352942	0.5428571428571429	0.5	0.6666666666666667	0.5833333333333333	0.5	0.575	0.728813559322034	0.5277777777777778	0.6666666666666667	0.7586206896551724	0.7222222222222222	0.6363636363636364	0.6935483870967742	0.6363636363636364	0.5384615384615384	0.7272727272727273	0.59375	0.4117647058823529	0.6285714285714286	0.6595744680851063	0.6764705882352942	0.6764705882352942	
record-156804	0.5	0.6764705882352942	0.6153846153846154	0.6551724137931034	0.7027027027027026	0.7142857142857143	0.0	0.828125	0.8103448275862069	0.6451612903225806	0.7560975609756098	0.42105263157894735	0.6451612903225806	0.8070175438596492	0.6071428571428572	0.6451612903225806	0.5	0.6875	0.8	0.56	0.7727272727272727	0.5	0.33333333333333337	0.6153846153846154	0.23529411764705888	0.7027027027027026	0.6153846153846154	0.7674418604651163	0.6774193548387097	0.8070175438596492	0.7142857142857143	0.819672131147541	0.6153846153846154	0.42105263157894735	0.5	0.42105263157894735	0.7	0.42105263157894735	0.5	0.6071428571428572	0.56	0.5	0.7142857142857143	0.7857142857142857	0.33333333333333337	0.6666666666666667	0.5	0.42105263157894735	0.6875	0.6578947368421053	0.4736842105263158	0.42105263157894735	0.7441860465116279	0.5	0.6551724137931034	0.47619047619047616	0.38888888888888884	0.42105263157894735	0.4736842105263158	0.42105263157894735	0.7894736842105263	0.33333333333333337	0.6875	0.6538461538461539	0.6666666666666667	0.5	0.5	0.6538461538461539	0.5	0.33333333333333337	0.6153846153846154	0.4285714285714286	0.6	0.56	0.6451612903225806	0.5	0.5	0.56	0.6923076923076923	0.6666666666666667	0.42105263157894735	0.33333333333333337	0.56	0.5	0.6666666666666667	0.736842105263158	0.5	0.6	0.56	0.56	0.33333333333333337	0.5555555555555556	0.7333333333333334	0.5	0.42105263157894735	0.23529411764705888	0.6153846153846154	0.23529411764705888	0.7027027027027026	0.6071428571428572	0.6764705882352942	0.56	0.5	0.42105263157894735	0.6666666666666667	0.6578947368421053	0.6	0.6	0.6363636363636364	0.5	0.59375	0.5	0.6538461538461539	0.33333333333333337	0.23529411764705888	0.6153846153846154	0.23529411764705888	0.33333333333333337	0.6666666666666667	0.6666666666666667	0.42105263157894735	0.6666666666666667	0.819672131147541	0.5555555555555556	0.33333333333333337	0.7727272727272727	0.5	0.5	0.56	0.5	0.42105263157894735	0.6666666666666667	0.125	0.6666666666666667	0.7727272727272727	0.6451612903225806	0.33333333333333337	0.5555555555555556	0.5555555555555556	0.6764705882352942	0.42105263157894735	0.5555555555555556	0.42105263157894735	0.6071428571428572	0.6071428571428572	0.23529411764705888	0.8	0.6875	0.5	0.5	0.33333333333333337	0.5	0.6153846153846154	0.65	0.6451612903225806	0.23529411764705888	0.6153846153846154	0.33333333333333337	0.5555555555555556	0.65	0.125	0.5	0.6666666666666667	0.33333333333333337	0.33333333333333337	0.42105263157894735	0.23529411764705888	0.8214285714285714	0.23529411764705888	0.33333333333333337	0.6875	0.8181818181818181	0.65	0.59375	0.125	0.75	0.5	0.42105263157894735	0.23529411764705888	0.6666666666666667	0.6551724137931034	0.42105263157894735	0.23529411764705888	0.6071428571428572	0.6153846153846154	0.5555555555555556	0.33333333333333337	0.56	0.6071428571428572	0.6451612903225806	0.7027027027027026	0.5	0.5	0.7027027027027026	0.6071428571428572	0.6875	0.5789473684210527	0.8113207547169812	0.42105263157894735	0.7441860465116279	0.5	0.4347826086956522	0.6153846153846154	0.33333333333333337	0.56	0.56	0.6774193548387097	0.5	0.7755102040816326	0.8214285714285714	0.782608695652174	0.8214285714285714	0.33333333333333337	0.6666666666666667	0.6666666666666667	0.75	0.6153846153846154	0.5	0.7884615384615384	0.6551724137931034	0.6153846153846154	0.7272727272727273	0.23529411764705888	0.5	0.6875	0.38888888888888884	0.42105263157894735	0.5	0.5	0.6451612903225806	0.8	0.7297297297297297	0.5714285714285714	0.6451612903225806	0.6153846153846154	0.5	0.6363636363636364	0.7333333333333334	0.5	0.7027027027027026	0.6666666666666667	0.5	0.7674418604651163	0.7027027027027026	0.5	0.33333333333333337	0.33333333333333337	0.7272727272727273	0.42105263157894735	0.7631578947368421	0.7142857142857143	0.4347826086956522	0.5	0.5	0.6451612903225806	0.5	0.7804878048780488	0.4736842105263158	0.7560975609756098	0.6451612903225806	0.42105263157894735	0.33333333333333337	0.6363636363636364	0.5	0.4736842105263158	0.33333333333333337	0.42105263157894735	0.56	0.7	0.5	0.71875	0.5	0.4347826086956522	0.5	0.5714285714285714	0.7027027027027026	0.42105263157894735	0.5714285714285714	0.6666666666666667	0.6538461538461539	0.8113207547169812	0.6451612903225806	0.5	0.71875	0.6	0.7796610169491526	0.42105263157894735	0.6451612903225806	0.6666666666666667	0.42105263157894735	0.5	0.33333333333333337	0.5714285714285714	0.5	0.42105263157894735	0.7027027027027026	0.5	0.6	0.5	0.6	0.5	0.6551724137931034	0.6896551724137931	0.6538461538461539	0.7727272727272727	0.8113207547169812	0.7027027027027026	0.6875	0.33333333333333337	0.5	0.7727272727272727	0.6875	0.6666666666666667	0.33333333333333337	0.6363636363636364	0.6451612903225806	0.42105263157894735	0.33333333333333337	0.6764705882352942	0.42105263157894735	0.33333333333333337	0.7560975609756098	0.6666666666666667	0.6666666666666667	0.5555555555555556	0.5	0.5714285714285714	0.6666666666666667	0.6363636363636364	0.6153846153846154	0.6923076923076923	0.7333333333333334	0.5652173913043479	0.6	0.33333333333333337	0.23529411764705888	0.6363636363636364	0.6	0.6538461538461539	0.42105263157894735	0.42105263157894735	0.125	0.33333333333333337	0.6451612903225806	0.5	0.42105263157894735	0.56	0.6	0.6764705882352942	0.6071428571428572	0.33333333333333337	0.56	0.42105263157894735	0.5	0.6428571428571428	0.6551724137931034	0.5	0.6451612903225806	0.33333333333333337	0.6666666666666667	0.6666666666666667	0.23529411764705888	0.33333333333333337	0.56	0.5555555555555556	0.7027027027027026	0.56	0.7884615384615384	0.5	0.6875	0.5	0.5	0.6666666666666667	0.33333333333333337	0.5	0.6071428571428572	0.6	0.6	0.5	0.6071428571428572	0.6538461538461539	0.6451612903225806	0.33333333333333337	0.33333333333333337	0.6071428571428572	0.5	0.33333333333333337	0.5555555555555556	0.5555555555555556	0.23529411764705888	0.42105263157894735	0.42105263157894735	0.7755102040816326	0.725	0.33333333333333337	0.33333333333333337	0.5	0.6071428571428572	0.33333333333333337	0.6829268292682926	0.6	0.33333333333333337	0.125	0.5	0.23529411764705888	0.33333333333333337	0.5	0.6451612903225806	0.8	0.125	0.5	0.6153846153846154	0.33333333333333337	0.5	0.33333333333333337	0.23529411764705888	0.23529411764705888	0.5517241379310345	0.5555555555555556	0.4347826086956522	0.56	0.5	0.23529411764705888	0.7333333333333334	0.6	0.5	0.6829268292682926	0.6451612903225806	0.35	0.23529411764705888	0.7027027027027026	0.125	0.5	0.23529411764705888	0.33333333333333337	0.6363636363636364	0.6363636363636364	0.23529411764705888	0.33333333333333337	0.33333333333333337	0.23529411764705888	0.56	0.5	0.5	0.125	0.33333333333333337	0.56	0.56	0.6153846153846154	0.56	0.56	0.55	0.7027027027027026	0.42105263157894735	0.7027027027027026	0.42105263157894735	0.56	0.56	0.7674418604651163	0.5	0.6551724137931034	0.6875	0.7755102040816326	0.6896551724137931	0.4736842105263158	0.7608695652173914	0.7441860465116279	0.33333333333333337	0.8	0.42105263157894735	0.6875	0.65	0.42105263157894735	0.6551724137931034	0.625	0.7027027027027026	0.23529411764705888	0.33333333333333337	
record-156996	0.8461538461538461	0.7323943661971831	0.734375	0.782608695652174	0.6521739130434783	0.7671232876712328	0.828125	0.0	0.8367346938775511	0.8243243243243243	0.8148148148148149	0.8095238095238095	0.7746478873239436	0.8350515463917526	0.7462686567164178	0.7571428571428571	0.7538461538461538	0.7391304347826086	0.6071428571428572	0.734375	0.7777777777777778	0.7619047619047619	0.8095238095238095	0.734375	0.8095238095238095	0.7922077922077921	0.734375	0.7901234567901234	0.7887323943661972	0.8350515463917526	0.7671232876712328	0.8181818181818181	0.791044776119403	0.8461538461538461	0.8461538461538461	0.828125	0.7462686567164178	0.828125	0.7903225806451613	0.7462686567164178	0.7538461538461538	0.7142857142857143	0.5857142857142856	0.7848101265822784	0.8095238095238095	0.734375	0.8095238095238095	0.8461538461538461	0.7916666666666666	0.5882352941176471	0.8253968253968254	0.8095238095238095	0.7926829268292683	0.7142857142857143	0.7647058823529411	0.8333333333333334	0.84375	0.8461538461538461	0.8253968253968254	0.8095238095238095	0.8247422680412371	0.828125	0.7746478873239436	0.7692307692307692	0.734375	0.8461538461538461	0.828125	0.7301587301587302	0.828125	0.828125	0.791044776119403	0.835820895522388	0.7916666666666666	0.7538461538461538	0.7916666666666666	0.828125	0.791044776119403	0.7538461538461538	0.7532467532467533	0.7727272727272727	0.828125	0.8095238095238095	0.7727272727272727	0.8095238095238095	0.734375	0.7083333333333333	0.828125	0.75	0.7727272727272727	0.7727272727272727	0.828125	0.7462686567164178	0.6923076923076923	0.835820895522388	0.7903225806451613	0.828125	0.791044776119403	0.828125	0.6714285714285715	0.7647058823529411	0.7837837837837838	0.734375	0.828125	0.8095238095238095	0.7727272727272727	0.8	0.7692307692307692	0.7878787878787878	0.7671232876712328	0.7727272727272727	0.7671232876712328	0.7727272727272727	0.75	0.8461538461538461	0.828125	0.7142857142857143	0.828125	0.828125	0.734375	0.7538461538461538	0.828125	0.734375	0.6071428571428572	0.782608695652174	0.828125	0.7926829268292683	0.782608695652174	0.7647058823529411	0.7727272727272727	0.828125	0.7903225806451613	0.726027397260274	0.828125	0.7538461538461538	0.8072289156626506	0.7391304347826086	0.828125	0.7462686567164178	0.7272727272727273	0.75	0.828125	0.7647058823529411	0.828125	0.8	0.7647058823529411	0.828125	0.6626506024096386	0.6818181818181819	0.7647058823529411	0.7462686567164178	0.828125	0.7727272727272727	0.7538461538461538	0.8571428571428572	0.7571428571428571	0.828125	0.7727272727272727	0.8095238095238095	0.782608695652174	0.875	0.828125	0.782608695652174	0.7922077922077921	0.8095238095238095	0.828125	0.828125	0.828125	0.7666666666666666	0.8461538461538461	0.828125	0.7391304347826086	0.8297872340425532	0.8571428571428572	0.7323943661971831	0.828125	0.8202247191011236	0.78125	0.8095238095238095	0.8461538461538461	0.7763157894736842	0.6875	0.8095238095238095	0.828125	0.7272727272727273	0.7142857142857143	0.7647058823529411	0.828125	0.7142857142857143	0.7272727272727273	0.7205882352941176	0.76	0.791044776119403	0.8095238095238095	0.7922077922077921	0.7076923076923076	0.7571428571428571	0.875	0.7441860465116279	0.8095238095238095	0.6973684210526316	0.828125	0.7538461538461538	0.8088235294117647	0.8095238095238095	0.7142857142857143	0.734375	0.6129032258064516	0.7538461538461538	0.8202247191011236	0.6626506024096386	0.536231884057971	0.8191489361702128	0.8095238095238095	0.734375	0.7538461538461538	0.8157894736842105	0.7727272727272727	0.8461538461538461	0.8260869565217391	0.7462686567164178	0.734375	0.7391304347826086	0.828125	0.8095238095238095	0.7746478873239436	0.8064516129032258	0.7903225806451613	0.8095238095238095	0.828125	0.7571428571428571	0.8191489361702128	0.8051948051948052	0.7903225806451613	0.6615384615384615	0.734375	0.8461538461538461	0.8	0.7857142857142857	0.828125	0.7763157894736842	0.791044776119403	0.828125	0.8048780487804879	0.6119402985074627	0.8095238095238095	0.8461538461538461	0.8461538461538461	0.7571428571428571	0.8461538461538461	0.6857142857142857	0.6363636363636364	0.791044776119403	0.7538461538461538	0.7727272727272727	0.7571428571428571	0.8461538461538461	0.7974683544303798	0.8253968253968254	0.5882352941176471	0.7746478873239436	0.828125	0.8095238095238095	0.7671232876712328	0.8095238095238095	0.8253968253968254	0.828125	0.828125	0.734375	0.7462686567164178	0.8095238095238095	0.65625	0.8461538461538461	0.791044776119403	0.8461538461538461	0.8095238095238095	0.6901408450704225	0.8095238095238095	0.828125	0.6119402985074627	0.7692307692307692	0.8131868131868132	0.7014925373134329	0.734375	0.7714285714285715	0.7878787878787878	0.6395348837209303	0.828125	0.7571428571428571	0.726027397260274	0.8095238095238095	0.8095238095238095	0.8461538461538461	0.7903225806451613	0.7903225806451613	0.828125	0.7763157894736842	0.8	0.7878787878787878	0.828125	0.75	0.782608695652174	0.7647058823529411	0.7794117647058824	0.75	0.7777777777777778	0.8	0.7763157894736842	0.7014925373134329	0.8461538461538461	0.828125	0.7926829268292683	0.7391304347826086	0.7538461538461538	0.8461538461538461	0.7837837837837838	0.8082191780821918	0.8095238095238095	0.8095238095238095	0.75	0.7903225806451613	0.828125	0.8	0.7727272727272727	0.7083333333333333	0.7647058823529411	0.7538461538461538	0.828125	0.7432432432432432	0.7837837837837838	0.734375	0.7692307692307692	0.725	0.78125	0.7692307692307692	0.8461538461538461	0.828125	0.6956521739130435	0.7916666666666666	0.7301587301587302	0.8095238095238095	0.8095238095238095	0.828125	0.7903225806451613	0.7746478873239436	0.828125	0.828125	0.7538461538461538	0.7746478873239436	0.7671232876712328	0.7462686567164178	0.828125	0.7538461538461538	0.8461538461538461	0.828125	0.8309859154929577	0.782608695652174	0.78125	0.7571428571428571	0.8461538461538461	0.7727272727272727	0.7727272727272727	0.8095238095238095	0.828125	0.734375	0.782608695652174	0.7922077922077921	0.791044776119403	0.6666666666666667	0.8	0.7571428571428571	0.8095238095238095	0.8461538461538461	0.7538461538461538	0.8095238095238095	0.828125	0.782608695652174	0.7014925373134329	0.7391304347826086	0.8095238095238095	0.7462686567164178	0.75	0.7205882352941176	0.8095238095238095	0.8461538461538461	0.782608695652174	0.828125	0.828125	0.782608695652174	0.782608695652174	0.828125	0.8461538461538461	0.8095238095238095	0.7790697674418605	0.7848101265822784	0.828125	0.8461538461538461	0.828125	0.7647058823529411	0.828125	0.625	0.7391304347826086	0.8461538461538461	0.828125	0.828125	0.828125	0.828125	0.828125	0.7391304347826086	0.8181818181818181	0.828125	0.8	0.7142857142857143	0.8095238095238095	0.7538461538461538	0.828125	0.8461538461538461	0.828125	0.7571428571428571	0.7647058823529411	0.7727272727272727	0.7538461538461538	0.7538461538461538	0.828125	0.813953488372093	0.7746478873239436	0.828125	0.8072289156626506	0.7014925373134329	0.78125	0.828125	0.6521739130434783	0.828125	0.7647058823529411	0.828125	0.8095238095238095	0.7142857142857143	0.6363636363636364	0.828125	0.8095238095238095	0.8095238095238095	0.8095238095238095	0.7538461538461538	0.7272727272727273	0.7142857142857143	0.8095238095238095	0.8095238095238095	0.6935483870967742	0.734375	0.7538461538461538	0.7142857142857143	0.7142857142857143	0.7868852459016393	0.7922077922077921	0.8461538461538461	0.5692307692307692	0.828125	0.7727272727272727	0.6935483870967742	0.6575342465753424	0.791044776119403	0.7462686567164178	0.7014925373134329	0.6	0.7424242424242424	0.8253968253968254	0.725	0.6438356164383562	0.8095238095238095	0.752808988764045	0.8095238095238095	0.7571428571428571	0.875	0.7903225806451613	0.7462686567164178	0.7419354838709677	0.7922077922077921	0.828125	0.8095238095238095	
record-415657	0.8103448275862069	0.6451612903225806	0.728813559322034	0.78125	0.6615384615384615	0.7462686567164178	0.8103448275862069	0.8367346938775511	0.0	0.7727272727272727	0.5245901639344263	0.7894736842105263	0.6271186440677966	0.6103896103896104	0.7213114754098361	0.7727272727272727	0.75	0.6935483870967742	0.7934782608695652	0.6842105263157895	0.726027397260274	0.8	0.7894736842105263	0.75	0.8103448275862069	0.6190476190476191	0.7903225806451613	0.6060606060606061	0.6885245901639344	0.7411764705882353	0.7272727272727273	0.6941176470588235	0.6607142857142857	0.7894736842105263	0.8103448275862069	0.8103448275862069	0.7213114754098361	0.8103448275862069	0.7678571428571428	0.7619047619047619	0.6842105263157895	0.6842105263157895	0.423728813559322	0.6567164179104478	0.7894736842105263	0.75	0.7894736842105263	0.8305084745762712	0.7727272727272727	0.6153846153846154	0.8275862068965517	0.8103448275862069	0.6521739130434783	0.7068965517241379	0.7619047619047619	0.7966101694915254	0.8275862068965517	0.7894736842105263	0.7857142857142857	0.8103448275862069	0.6987951807228916	0.7894736842105263	0.7538461538461538	0.7017543859649122	0.7068965517241379	0.8305084745762712	0.7894736842105263	0.7241379310344828	0.8305084745762712	0.7894736842105263	0.7903225806451613	0.819672131147541	0.8088235294117647	0.7704918032786885	0.65	0.8305084745762712	0.7704918032786885	0.7704918032786885	0.7671232876712328	0.7068965517241379	0.85	0.7894736842105263	0.75	0.8305084745762712	0.7068965517241379	0.7205882352941176	0.8305084745762712	0.7457627118644068	0.75	0.7068965517241379	0.7894736842105263	0.7213114754098361	0.6849315068493151	0.819672131147541	0.7894736842105263	0.7894736842105263	0.728813559322034	0.8103448275862069	0.6190476190476191	0.7419354838709677	0.6875	0.7068965517241379	0.8305084745762712	0.8103448275862069	0.75	0.6567164179104478	0.7241379310344828	0.7017543859649122	0.7076923076923076	0.7704918032786885	0.6875	0.7903225806451613	0.7017543859649122	0.8103448275862069	0.8103448275862069	0.7068965517241379	0.7894736842105263	0.7894736842105263	0.7068965517241379	0.7068965517241379	0.7678571428571428	0.7068965517241379	0.8315789473684211	0.7619047619047619	0.8103448275862069	0.6901408450704225	0.7419354838709677	0.7419354838709677	0.75	0.8103448275862069	0.8103448275862069	0.7746478873239436	0.8103448275862069	0.728813559322034	0.6323529411764706	0.7538461538461538	0.8103448275862069	0.7213114754098361	0.835820895522388	0.6875	0.8103448275862069	0.7419354838709677	0.8103448275862069	0.7213114754098361	0.7213114754098361	0.7894736842105263	0.7037037037037037	0.65	0.7419354838709677	0.7	0.8305084745762712	0.75	0.7903225806451613	0.8813559322033898	0.7142857142857143	0.8305084745762712	0.7704918032786885	0.8103448275862069	0.7419354838709677	0.8813559322033898	0.8103448275862069	0.7619047619047619	0.640625	0.7894736842105263	0.7894736842105263	0.8103448275862069	0.8103448275862069	0.7349397590361446	0.8305084745762712	0.8103448275862069	0.7142857142857143	0.7160493827160495	0.8813559322033898	0.7076923076923076	0.7894736842105263	0.6056338028169015	0.7796610169491526	0.8103448275862069	0.8103448275862069	0.640625	0.7213114754098361	0.7894736842105263	0.7894736842105263	0.7213114754098361	0.7068965517241379	0.6779661016949152	0.8103448275862069	0.728813559322034	0.7	0.6721311475409837	0.6818181818181819	0.6842105263157895	0.7678571428571428	0.5737704918032787	0.7619047619047619	0.6721311475409837	0.8620689655172413	0.6216216216216216	0.8305084745762712	0.6119402985074627	0.7894736842105263	0.7704918032786885	0.8095238095238095	0.8305084745762712	0.6842105263157895	0.6607142857142857	0.6206896551724138	0.75	0.5857142857142856	0.7037037037037037	0.6986301369863014	0.618421052631579	0.8305084745762712	0.7068965517241379	0.7704918032786885	0.7647058823529411	0.75	0.8305084745762712	0.7857142857142857	0.7213114754098361	0.75	0.734375	0.8103448275862069	0.7894736842105263	0.65	0.8070175438596492	0.7678571428571428	0.8103448275862069	0.8103448275862069	0.734375	0.6875	0.7164179104477613	0.7678571428571428	0.6721311475409837	0.728813559322034	0.8305084745762712	0.6	0.5454545454545454	0.8305084745762712	0.6818181818181819	0.7704918032786885	0.8103448275862069	0.6268656716417911	0.640625	0.7894736842105263	0.8103448275862069	0.8103448275862069	0.6271186440677966	0.8305084745762712	0.7164179104477613	0.6666666666666667	0.7704918032786885	0.6607142857142857	0.75	0.6935483870967742	0.8305084745762712	0.5873015873015873	0.8070175438596492	0.6153846153846154	0.6721311475409837	0.8103448275862069	0.7678571428571428	0.6666666666666667	0.8305084745762712	0.7857142857142857	0.7678571428571428	0.8305084745762712	0.7068965517241379	0.7213114754098361	0.8305084745762712	0.6666666666666667	0.8305084745762712	0.7704918032786885	0.8305084745762712	0.7894736842105263	0.7014925373134329	0.8103448275862069	0.8103448275862069	0.5254237288135593	0.7666666666666666	0.5833333333333333	0.6721311475409837	0.7068965517241379	0.6666666666666667	0.7666666666666666	0.6941176470588235	0.8103448275862069	0.7142857142857143	0.7205882352941176	0.8103448275862069	0.8305084745762712	0.8103448275862069	0.7894736842105263	0.7678571428571428	0.8103448275862069	0.5254237288135593	0.819672131147541	0.7666666666666666	0.8305084745762712	0.7457627118644068	0.7419354838709677	0.7	0.6949152542372881	0.7017543859649122	0.546875	0.5217391304347826	0.7391304347826086	0.7142857142857143	0.85	0.8305084745762712	0.5909090909090908	0.65	0.7704918032786885	0.8103448275862069	0.6229508196721312	0.603448275862069	0.7894736842105263	0.7894736842105263	0.6229508196721312	0.8103448275862069	0.7894736842105263	0.59375	0.7903225806451613	0.7746478873239436	0.7419354838709677	0.7704918032786885	0.8103448275862069	0.7571428571428571	0.7647058823529411	0.7068965517241379	0.7671232876712328	0.7027027027027026	0.7796610169491526	0.7241379310344828	0.8103448275862069	0.8103448275862069	0.6875	0.7538461538461538	0.7241379310344828	0.7894736842105263	0.7894736842105263	0.8103448275862069	0.7678571428571428	0.6721311475409837	0.8305084745762712	0.8103448275862069	0.728813559322034	0.7538461538461538	0.6451612903225806	0.7213114754098361	0.7894736842105263	0.728813559322034	0.8103448275862069	0.8305084745762712	0.7580645161290323	0.7619047619047619	0.7796610169491526	0.6935483870967742	0.8103448275862069	0.7903225806451613	0.728813559322034	0.7894736842105263	0.7894736842105263	0.728813559322034	0.7619047619047619	0.7205882352941176	0.8095238095238095	0.8275862068965517	0.7619047619047619	0.7727272727272727	0.7894736842105263	0.7894736842105263	0.6842105263157895	0.7894736842105263	0.8103448275862069	0.7619047619047619	0.6721311475409837	0.734375	0.8305084745762712	0.7619047619047619	0.7017543859649122	0.6935483870967742	0.8103448275862069	0.8103448275862069	0.8	0.8305084745762712	0.8103448275862069	0.78125	0.7	0.8103448275862069	0.8305084745762712	0.7894736842105263	0.6621621621621622	0.7323943661971831	0.7894736842105263	0.8103448275862069	0.8103448275862069	0.78125	0.7894736842105263	0.7432432432432432	0.65	0.8103448275862069	0.8103448275862069	0.8305084745762712	0.7894736842105263	0.7894736842105263	0.8103448275862069	0.7538461538461538	0.752808988764045	0.8103448275862069	0.7419354838709677	0.728813559322034	0.7894736842105263	0.7068965517241379	0.8103448275862069	0.8103448275862069	0.8103448275862069	0.6935483870967742	0.7419354838709677	0.75	0.7704918032786885	0.6842105263157895	0.7894736842105263	0.7027027027027026	0.7538461538461538	0.8103448275862069	0.6521739130434783	0.7142857142857143	0.8	0.8103448275862069	0.640625	0.8103448275862069	0.7419354838709677	0.8103448275862069	0.7894736842105263	0.6451612903225806	0.7462686567164178	0.8103448275862069	0.7678571428571428	0.8103448275862069	0.8305084745762712	0.6111111111111112	0.7	0.7068965517241379	0.7894736842105263	0.7894736842105263	0.6607142857142857	0.6607142857142857	0.728813559322034	0.6842105263157895	0.6842105263157895	0.7857142857142857	0.55	0.8103448275862069	0.5967741935483871	0.8305084745762712	0.7068965517241379	0.728813559322034	0.6666666666666667	0.75	0.78125	0.65	0.6973684210526316	0.7580645161290323	0.7857142857142857	0.8433734939759037	0.5909090909090908	0.7894736842105263	0.7037037037037037	0.7894736842105263	0.603448275862069	0.8813559322033898	0.8103448275862069	0.7213114754098361	0.8	0.7205882352941176	0.7894736842105263	0.8305084745762712	
record-415691	0.6451612903225806	0.7333333333333334	0.6285714285714286	0.5833333333333333	0.6956521739130435	0.6744186046511628	0.6451612903225806	0.8243243243243243	0.7727272727272727	0.0	0.6304347826086957	0.6875	0.65	0.75	0.4545454545454546	0.6153846153846154	0.6666666666666667	0.5	0.8169014084507042	0.5882352941176471	0.7058823529411764	0.7142857142857143	0.6875	0.5882352941176471	0.6451612903225806	0.7234042553191489	0.7027027027027026	0.75	0.6052631578947368	0.6666666666666667	0.575	0.8169014084507042	0.5454545454545454	0.6451612903225806	0.6451612903225806	0.5517241379310345	0.4545454545454546	0.6875	0.6875	0.5833333333333333	0.5454545454545454	0.6285714285714286	0.7307692307692308	0.6	0.6875	0.5454545454545454	0.7272727272727273	0.6	0.65	0.7142857142857143	0.6333333333333333	0.6451612903225806	0.7547169811320755	0.6666666666666667	0.5833333333333333	0.5333333333333333	0.4814814814814815	0.6	0.5862068965517242	0.6451612903225806	0.7538461538461538	0.6875	0.4117647058823529	0.53125	0.5	0.6451612903225806	0.6451612903225806	0.53125	0.6451612903225806	0.7272727272727273	0.5454545454545454	0.59375	0.65	0.6285714285714286	0.6153846153846154	0.6451612903225806	0.7027027027027026	0.6285714285714286	0.6595744680851063	0.5454545454545454	0.6451612903225806	0.6875	0.6666666666666667	0.6451612903225806	0.5454545454545454	0.6956521739130435	0.6875	0.5757575757575757	0.5882352941176471	0.5882352941176471	0.6875	0.5833333333333333	0.7678571428571428	0.6363636363636364	0.6875	0.6875	0.5	0.6875	0.7234042553191489	0.5428571428571429	0.7333333333333334	0.6666666666666667	0.6875	0.6	0.5454545454545454	0.6595744680851063	0.4838709677419355	0.53125	0.575	0.6285714285714286	0.6744186046511628	0.5882352941176471	0.5757575757575757	0.6451612903225806	0.6875	0.5882352941176471	0.6451612903225806	0.6451612903225806	0.5882352941176471	0.5882352941176471	0.6451612903225806	0.5882352941176471	0.8	0.6578947368421053	0.6875	0.7547169811320755	0.5833333333333333	0.5833333333333333	0.6285714285714286	0.6451612903225806	0.6451612903225806	0.6046511627906976	0.6451612903225806	0.6285714285714286	0.7058823529411764	0.65	0.6451612903225806	0.6578947368421053	0.6923076923076923	0.7045454545454546	0.6451612903225806	0.4545454545454546	0.6	0.5	0.5833333333333333	0.6451612903225806	0.8	0.7142857142857143	0.6578947368421053	0.5833333333333333	0.6	0.5882352941176471	0.736842105263158	0.7419354838709677	0.7142857142857143	0.6	0.7027027027027026	0.6875	0.4545454545454546	0.7419354838709677	0.6875	0.6578947368421053	0.6956521739130435	0.6875	0.6451612903225806	0.5517241379310345	0.6	0.78125	0.6	0.6451612903225806	0.65	0.7580645161290323	0.78125	0.6744186046511628	0.6451612903225806	0.7586206896551724	0.6363636363636364	0.6451612903225806	0.6875	0.7234042553191489	0.6923076923076923	0.6451612903225806	0.6875	0.6216216216216216	0.6285714285714286	0.5	0.6451612903225806	0.5882352941176471	0.5428571428571429	0.6829268292682926	0.6956521739130435	0.5	0.6451612903225806	0.6666666666666667	0.7560975609756098	0.65	0.7419354838709677	0.7704918032786885	0.6875	0.7307692307692308	0.6451612903225806	0.6666666666666667	0.6285714285714286	0.6451612903225806	0.6285714285714286	0.5454545454545454	0.675	0.6285714285714286	0.7796610169491526	0.8	0.7857142857142857	0.78125	0.5517241379310345	0.5	0.5454545454545454	0.6744186046511628	0.5882352941176471	0.5517241379310345	0.75	0.5	0.5454545454545454	0.6153846153846154	0.7272727272727273	0.6	0.6153846153846154	0.5862068965517242	0.7272727272727273	0.6451612903225806	0.6	0.6153846153846154	0.8181818181818181	0.525	0.6451612903225806	0.6153846153846154	0.5454545454545454	0.6451612903225806	0.5384615384615384	0.7222222222222222	0.6451612903225806	0.7234042553191489	0.5	0.6	0.7254901960784313	0.6956521739130435	0.6	0.6451612903225806	0.6451612903225806	0.6153846153846154	0.6451612903225806	0.7173913043478262	0.6744186046511628	0.7027027027027026	0.5882352941176471	0.6285714285714286	0.65	0.6875	0.5909090909090908	0.6774193548387097	0.7142857142857143	0.6153846153846154	0.6451612903225806	0.7272727272727273	0.6744186046511628	0.6875	0.5862068965517242	0.6451612903225806	0.6	0.5882352941176471	0.4545454545454546	0.5517241379310345	0.641025641025641	0.6875	0.6666666666666667	0.6875	0.6875	0.7234042553191489	0.6	0.7272727272727273	0.7234042553191489	0.53125	0.8095238095238095	0.6829268292682926	0.6285714285714286	0.641025641025641	0.53125	0.8333333333333334	0.6	0.65	0.7234042553191489	0.6	0.6875	0.7272727272727273	0.6	0.6875	0.7272727272727273	0.7234042553191489	0.6363636363636364	0.5757575757575757	0.6875	0.53125	0.5	0.4545454545454546	0.48484848484848486	0.53125	0.7307692307692308	0.728813559322034	0.6956521739130435	0.5789473684210527	0.6875	0.6875	0.653061224489796	0.65	0.5882352941176471	0.6875	0.575	0.5789473684210527	0.7272727272727273	0.6451612903225806	0.575	0.6875	0.6875	0.6875	0.5882352941176471	0.75	0.6216216216216216	0.6285714285714286	0.5517241379310345	0.75	0.7045454545454546	0.5	0.74	0.7678571428571428	0.7142857142857143	0.53125	0.6875	0.6875	0.7333333333333334	0.6153846153846154	0.5757575757575757	0.6451612903225806	0.7272727272727273	0.6875	0.6875	0.65	0.6875	0.6451612903225806	0.5882352941176471	0.7142857142857143	0.575	0.4545454545454546	0.7272727272727273	0.6666666666666667	0.6	0.6	0.5714285714285714	0.5	0.6764705882352942	0.6829268292682926	0.6875	0.5454545454545454	0.5454545454545454	0.6451612903225806	0.6875	0.6285714285714286	0.6578947368421053	0.6666666666666667	0.6285714285714286	0.8095238095238095	0.5428571428571429	0.6829268292682926	0.6	0.6	0.5454545454545454	0.6875	0.6	0.5833333333333333	0.7142857142857143	0.7142857142857143	0.6875	0.6923076923076923	0.5757575757575757	0.6153846153846154	0.5517241379310345	0.6875	0.6578947368421053	0.6451612903225806	0.6451612903225806	0.5833333333333333	0.5	0.6451612903225806	0.6	0.6875	0.7796610169491526	0.7647058823529411	0.6451612903225806	0.6875	0.6451612903225806	0.6578947368421053	0.6875	0.7307692307692308	0.65	0.6451612903225806	0.6451612903225806	0.6451612903225806	0.6451612903225806	0.6451612903225806	0.6875	0.65	0.8169014084507042	0.6451612903225806	0.5	0.5882352941176471	0.6451612903225806	0.6666666666666667	0.6451612903225806	0.6451612903225806	0.6451612903225806	0.6153846153846154	0.6923076923076923	0.7027027027027026	0.5882352941176471	0.6285714285714286	0.6451612903225806	0.7894736842105263	0.6829268292682926	0.6451612903225806	0.6799999999999999	0.7142857142857143	0.6764705882352942	0.6875	0.7234042553191489	0.6875	0.6578947368421053	0.6875	0.6875	0.7333333333333334	0.7608695652173914	0.6451612903225806	0.6	0.6	0.6451612903225806	0.5454545454545454	0.6216216216216216	0.6285714285714286	0.6875	0.6875	0.6285714285714286	0.5454545454545454	0.5	0.5882352941176471	0.5882352941176471	0.6774193548387097	0.6666666666666667	0.6	0.7234042553191489	0.7272727272727273	0.5454545454545454	0.6285714285714286	0.5869565217391304	0.5882352941176471	0.6578947368421053	0.65	0.7586206896551724	0.48484848484848486	0.5862068965517242	0.7222222222222222	0.7307692307692308	0.6875	0.7419354838709677	0.6451612903225806	0.65	0.7	0.7272727272727273	0.5833333333333333	0.6363636363636364	0.7234042553191489	0.6875	0.6875	
record-415817	0.6923076923076923	0.5957446808510638	0.6744186046511628	0.6956521739130435	0.6470588235294117	0.6799999999999999	0.7560975609756098	0.8148148148148149	0.5245901639344263	0.6304347826086957	0.0	0.725	0.5681818181818181	0.609375	0.6363636363636364	0.6595744680851063	0.7045454545454546	0.5348837209302326	0.6714285714285715	0.6428571428571428	0.6363636363636364	0.6829268292682926	0.725	0.6097560975609756	0.7560975609756098	0.5625	0.7045454545454546	0.4897959183673469	0.6222222222222222	0.6515151515151515	0.6799999999999999	0.6521739130434783	0.6097560975609756	0.725	0.6923076923076923	0.7560975609756098	0.6046511627906976	0.6923076923076923	0.6578947368421053	0.6666666666666667	0.6428571428571428	0.6097560975609756	0.4693877551020408	0.56	0.725	0.6428571428571428	0.725	0.725	0.6	0.46808510638297873	0.7804878048780488	0.7560975609756098	0.5576923076923077	0.6428571428571428	0.5365853658536586	0.7380952380952381	0.717948717948718	0.7560975609756098	0.717948717948718	0.7560975609756098	0.6956521739130435	0.725	0.6875	0.6341463414634146	0.6428571428571428	0.7857142857142857	0.6578947368421053	0.6	0.7560975609756098	0.725	0.6744186046511628	0.7142857142857143	0.6595744680851063	0.7045454545454546	0.6	0.7560975609756098	0.6744186046511628	0.7333333333333334	0.736842105263158	0.6097560975609756	0.7560975609756098	0.6923076923076923	0.6744186046511628	0.7560975609756098	0.6428571428571428	0.6730769230769231	0.7560975609756098	0.6666666666666667	0.575	0.6097560975609756	0.725	0.6956521739130435	0.6071428571428572	0.7142857142857143	0.6578947368421053	0.725	0.6428571428571428	0.725	0.5918367346938775	0.6363636363636364	0.5652173913043479	0.6428571428571428	0.7560975609756098	0.6578947368421053	0.6097560975609756	0.6415094339622642	0.6341463414634146	0.6	0.625	0.7045454545454546	0.5957446808510638	0.6744186046511628	0.6341463414634146	0.7560975609756098	0.725	0.575	0.7560975609756098	0.7560975609756098	0.6428571428571428	0.6428571428571428	0.6923076923076923	0.6428571428571428	0.6323529411764706	0.7234042553191489	0.725	0.6363636363636364	0.6666666666666667	0.7234042553191489	0.6744186046511628	0.7857142857142857	0.7560975609756098	0.6730769230769231	0.7560975609756098	0.6744186046511628	0.5	0.6595744680851063	0.7560975609756098	0.6666666666666667	0.7755102040816326	0.5333333333333333	0.7560975609756098	0.6363636363636364	0.725	0.6363636363636364	0.6363636363636364	0.7560975609756098	0.5967741935483871	0.5681818181818181	0.7234042553191489	0.6666666666666667	0.725	0.6744186046511628	0.7333333333333334	0.8	0.6595744680851063	0.725	0.7045454545454546	0.7560975609756098	0.6046511627906976	0.8	0.7560975609756098	0.75	0.5918367346938775	0.7560975609756098	0.7560975609756098	0.6923076923076923	0.725	0.6818181818181819	0.725	0.6923076923076923	0.6595744680851063	0.676923076923077	0.8292682926829268	0.625	0.7560975609756098	0.5535714285714286	0.7142857142857143	0.6923076923076923	0.7560975609756098	0.5918367346938775	0.6666666666666667	0.725	0.7560975609756098	0.6363636363636364	0.6428571428571428	0.5714285714285714	0.6923076923076923	0.6097560975609756	0.5714285714285714	0.5348837209302326	0.5319148936170213	0.6097560975609756	0.6216216216216216	0.5319148936170213	0.7234042553191489	0.6	0.8292682926829268	0.576271186440678	0.725	0.5294117647058824	0.6578947368421053	0.7045454545454546	0.7045454545454546	0.7560975609756098	0.6428571428571428	0.6097560975609756	0.4878048780487805	0.7045454545454546	0.5789473684210527	0.6190476190476191	0.6	0.5737704918032787	0.7560975609756098	0.575	0.6744186046511628	0.7058823529411764	0.6744186046511628	0.6578947368421053	0.7076923076923076	0.6666666666666667	0.7045454545454546	0.6875	0.725	0.725	0.5681818181818181	0.717948717948718	0.6923076923076923	0.7560975609756098	0.725	0.6595744680851063	0.640625	0.64	0.725	0.5	0.6097560975609756	0.725	0.5	0.40816326530612246	0.7560975609756098	0.62	0.6428571428571428	0.7560975609756098	0.5490196078431373	0.4666666666666667	0.725	0.7560975609756098	0.7560975609756098	0.46341463414634143	0.725	0.64	0.5957446808510638	0.7045454545454546	0.5384615384615384	0.7045454545454546	0.6	0.7560975609756098	0.38636363636363635	0.717948717948718	0.46808510638297873	0.6	0.6923076923076923	0.6923076923076923	0.653061224489796	0.725	0.717948717948718	0.6923076923076923	0.6923076923076923	0.6428571428571428	0.6046511627906976	0.7560975609756098	0.5581395348837209	0.725	0.7333333333333334	0.7560975609756098	0.6923076923076923	0.5918367346938775	0.6578947368421053	0.725	0.4666666666666667	0.6666666666666667	0.6451612903225806	0.5348837209302326	0.6428571428571428	0.5909090909090908	0.6341463414634146	0.6323529411764706	0.725	0.6304347826086957	0.6981132075471699	0.6578947368421053	0.725	0.725	0.6923076923076923	0.6578947368421053	0.725	0.4666666666666667	0.7142857142857143	0.6666666666666667	0.7560975609756098	0.6976744186046512	0.6956521739130435	0.6046511627906976	0.627906976744186	0.6341463414634146	0.4042553191489362	0.5	0.7222222222222222	0.5681818181818181	0.7560975609756098	0.7560975609756098	0.4375	0.5348837209302326	0.6428571428571428	0.725	0.5652173913043479	0.5348837209302326	0.725	0.6923076923076923	0.5333333333333333	0.725	0.725	0.4347826086956522	0.6428571428571428	0.6730769230769231	0.6956521739130435	0.7333333333333334	0.7560975609756098	0.5625	0.7547169811320755	0.6428571428571428	0.736842105263158	0.631578947368421	0.6829268292682926	0.6666666666666667	0.725	0.725	0.625	0.6595744680851063	0.6341463414634146	0.7560975609756098	0.725	0.725	0.6578947368421053	0.5	0.6923076923076923	0.6923076923076923	0.6428571428571428	0.6875	0.5957446808510638	0.6363636363636364	0.725	0.7045454545454546	0.7857142857142857	0.6923076923076923	0.5952380952380952	0.6046511627906976	0.7441860465116279	0.6304347826086957	0.725	0.7045454545454546	0.6097560975609756	0.6923076923076923	0.725	0.6744186046511628	0.7234042553191489	0.6470588235294117	0.6744186046511628	0.6451612903225806	0.6666666666666667	0.6875	0.725	0.7560975609756098	0.575	0.725	0.7560975609756098	0.6363636363636364	0.5681818181818181	0.6875	0.7560975609756098	0.6956521739130435	0.6341463414634146	0.5681818181818181	0.6923076923076923	0.725	0.7755102040816326	0.725	0.7560975609756098	0.7234042553191489	0.5714285714285714	0.7560975609756098	0.725	0.6578947368421053	0.4716981132075472	0.6415094339622642	0.7560975609756098	0.725	0.7560975609756098	0.7234042553191489	0.725	0.7068965517241379	0.6	0.7560975609756098	0.7560975609756098	0.725	0.7560975609756098	0.7560975609756098	0.7560975609756098	0.6304347826086957	0.6714285714285715	0.7560975609756098	0.6363636363636364	0.6097560975609756	0.7560975609756098	0.6428571428571428	0.7857142857142857	0.7560975609756098	0.7560975609756098	0.6	0.7234042553191489	0.7045454545454546	0.6744186046511628	0.6097560975609756	0.7560975609756098	0.6071428571428572	0.7142857142857143	0.7560975609756098	0.5576923076923077	0.6875	0.7727272727272727	0.7560975609756098	0.5319148936170213	0.7560975609756098	0.7234042553191489	0.7560975609756098	0.7560975609756098	0.5957446808510638	0.7777777777777778	0.7560975609756098	0.6578947368421053	0.725	0.7560975609756098	0.5384615384615384	0.6666666666666667	0.6744186046511628	0.725	0.725	0.6097560975609756	0.5384615384615384	0.5	0.6428571428571428	0.6428571428571428	0.75	0.43181818181818177	0.6923076923076923	0.4666666666666667	0.725	0.6097560975609756	0.6744186046511628	0.52	0.6744186046511628	0.7234042553191489	0.5	0.5535714285714286	0.6590909090909092	0.75	0.8181818181818181	0.4375	0.725	0.6190476190476191	0.6923076923076923	0.46341463414634143	0.8	0.6923076923076923	0.6046511627906976	0.7142857142857143	0.6470588235294117	0.725	0.7560975609756098	
record-415894	0.42105263157894735	0.6764705882352942	0.5	0.5555555555555556	0.6285714285714286	0.6363636363636364	0.42105263157894735	0.8095238095238095	0.7894736842105263	0.6875	0.725	0.0	0.6451612903225806	0.8070175438596492	0.6551724137931034	0.6451612903225806	0.4347826086956522	0.6	0.8	0.4347826086956522	0.8	0.5	0.125	0.56	0.42105263157894735	0.7027027027027026	0.6153846153846154	0.7380952380952381	0.6774193548387097	0.847457627118644	0.6764705882352942	0.8	0.5	0.33333333333333337	0.42105263157894735	0.5	0.6551724137931034	0.33333333333333337	0.33333333333333337	0.6071428571428572	0.36363636363636365	0.5	0.7142857142857143	0.7857142857142857	0.125	0.6153846153846154	0.23529411764705888	0.42105263157894735	0.5517241379310345	0.725	0.38888888888888884	0.33333333333333337	0.7441860465116279	0.5	0.5555555555555556	0.47619047619047616	0.55	0.42105263157894735	0.4736842105263158	0.5	0.7894736842105263	0.125	0.6	0.6	0.56	0.42105263157894735	0.33333333333333337	0.6	0.42105263157894735	0.23529411764705888	0.6666666666666667	0.4285714285714286	0.6451612903225806	0.56	0.5517241379310345	0.42105263157894735	0.4347826086956522	0.5	0.6923076923076923	0.56	0.5	0.33333333333333337	0.56	0.33333333333333337	0.6153846153846154	0.7027027027027026	0.42105263157894735	0.5416666666666667	0.5	0.5	0.125	0.43999999999999995	0.7045454545454546	0.4285714285714286	0.42105263157894735	0.23529411764705888	0.56	0.33333333333333337	0.6285714285714286	0.5	0.6363636363636364	0.36363636363636365	0.42105263157894735	0.42105263157894735	0.6666666666666667	0.6578947368421053	0.5416666666666667	0.6	0.59375	0.56	0.6764705882352942	0.6153846153846154	0.5416666666666667	0.33333333333333337	0.33333333333333337	0.5	0.23529411764705888	0.23529411764705888	0.56	0.56	0.125	0.56	0.819672131147541	0.43999999999999995	0.23529411764705888	0.7142857142857143	0.5555555555555556	0.43999999999999995	0.5	0.23529411764705888	0.23529411764705888	0.6666666666666667	0.33333333333333337	0.56	0.7441860465116279	0.6875	0.33333333333333337	0.5	0.5555555555555556	0.7142857142857143	0.23529411764705888	0.6551724137931034	0.33333333333333337	0.6551724137931034	0.6071428571428572	0.23529411764705888	0.8	0.6	0.5	0.5555555555555556	0.42105263157894735	0.5	0.5	0.65	0.6451612903225806	0.5	0.56	0.42105263157894735	0.6551724137931034	0.65	0.42105263157894735	0.5	0.6666666666666667	0.23529411764705888	0.33333333333333337	0.5	0.42105263157894735	0.8	0.5	0.5	0.6451612903225806	0.8181818181818181	0.65	0.7142857142857143	0.33333333333333337	0.8	0.5	0.42105263157894735	0.42105263157894735	0.6666666666666667	0.5555555555555556	0.42105263157894735	0.33333333333333337	0.5555555555555556	0.5	0.6071428571428572	0.5	0.6153846153846154	0.6071428571428572	0.6875	0.736842105263158	0.5	0.33333333333333337	0.6666666666666667	0.5	0.6	0.5789473684210527	0.7647058823529411	0.33333333333333337	0.7727272727272727	0.42105263157894735	0.5	0.5	0.42105263157894735	0.4347826086956522	0.36363636363636365	0.5862068965517242	0.5	0.75	0.8	0.6976744186046512	0.8	0.5714285714285714	0.6666666666666667	0.6153846153846154	0.59375	0.6666666666666667	0.5	0.7884615384615384	0.5555555555555556	0.56	0.6875	0.33333333333333337	0.5	0.6875	0.55	0.125	0.5	0.5714285714285714	0.6451612903225806	0.8214285714285714	0.6944444444444444	0.5	0.6451612903225806	0.56	0.42105263157894735	0.6363636363636364	0.7608695652173914	0.42105263157894735	0.6666666666666667	0.6666666666666667	0.5	0.7380952380952381	0.7027027027027026	0.5	0.33333333333333337	0.33333333333333337	0.6875	0.42105263157894735	0.6944444444444444	0.59375	0.5	0.4347826086956522	0.4347826086956522	0.6875	0.33333333333333337	0.7804878048780488	0.38888888888888884	0.6578947368421053	0.6451612903225806	0.23529411764705888	0.23529411764705888	0.5483870967741935	0.42105263157894735	0.4736842105263158	0.23529411764705888	0.5	0.36363636363636365	0.7	0.5	0.6333333333333333	0.42105263157894735	0.5	0.33333333333333337	0.42105263157894735	0.6666666666666667	0.33333333333333337	0.33333333333333337	0.6666666666666667	0.6538461538461539	0.7647058823529411	0.5517241379310345	0.4347826086956522	0.6774193548387097	0.6538461538461539	0.819672131147541	0.33333333333333337	0.6451612903225806	0.6285714285714286	0.33333333333333337	0.42105263157894735	0.33333333333333337	0.5714285714285714	0.33333333333333337	0.33333333333333337	0.6285714285714286	0.4285714285714286	0.5416666666666667	0.42105263157894735	0.5416666666666667	0.5	0.5555555555555556	0.5925925925925926	0.5416666666666667	0.7441860465116279	0.8113207547169812	0.6666666666666667	0.6875	0.5	0.42105263157894735	0.7727272727272727	0.6451612903225806	0.6153846153846154	0.33333333333333337	0.59375	0.6451612903225806	0.125	0.23529411764705888	0.6363636363636364	0.23529411764705888	0.125	0.725	0.6153846153846154	0.6666666666666667	0.43999999999999995	0.5	0.42105263157894735	0.6666666666666667	0.6363636363636364	0.4347826086956522	0.6923076923076923	0.7045454545454546	0.4285714285714286	0.5416666666666667	0.23529411764705888	0.23529411764705888	0.59375	0.6875	0.5416666666666667	0.33333333333333337	0.125	0.33333333333333337	0.33333333333333337	0.6451612903225806	0.42105263157894735	0.33333333333333337	0.5	0.6	0.59375	0.5555555555555556	0.23529411764705888	0.4347826086956522	0.33333333333333337	0.42105263157894735	0.6428571428571428	0.6551724137931034	0.5	0.6451612903225806	0.23529411764705888	0.6153846153846154	0.6666666666666667	0.33333333333333337	0.125	0.36363636363636365	0.43999999999999995	0.7027027027027026	0.5	0.7884615384615384	0.5555555555555556	0.6	0.33333333333333337	0.33333333333333337	0.6153846153846154	0.125	0.42105263157894735	0.6071428571428572	0.6	0.6451612903225806	0.42105263157894735	0.5555555555555556	0.5416666666666667	0.6875	0.42105263157894735	0.23529411764705888	0.6071428571428572	0.42105263157894735	0.33333333333333337	0.5	0.6071428571428572	0.33333333333333337	0.42105263157894735	0.33333333333333337	0.8	0.725	0.23529411764705888	0.33333333333333337	0.5	0.5	0.125	0.7142857142857143	0.6	0.33333333333333337	0.33333333333333337	0.42105263157894735	0.23529411764705888	0.23529411764705888	0.42105263157894735	0.6875	0.8387096774193549	0.33333333333333337	0.6071428571428572	0.6666666666666667	0.125	0.5	0.33333333333333337	0.33333333333333337	0.33333333333333337	0.6	0.5	0.5	0.5	0.5	0.23529411764705888	0.7608695652173914	0.6875	0.5	0.7441860465116279	0.5517241379310345	0.35	0.42105263157894735	0.7027027027027026	0.42105263157894735	0.5	0.42105263157894735	0.23529411764705888	0.6363636363636364	0.6764705882352942	0.42105263157894735	0.42105263157894735	0.33333333333333337	0.5	0.5	0.5	0.4347826086956522	0.42105263157894735	0.42105263157894735	0.4347826086956522	0.5	0.56	0.4347826086956522	0.4347826086956522	0.38888888888888884	0.736842105263158	0.42105263157894735	0.6666666666666667	0.42105263157894735	0.5	0.56	0.7954545454545454	0.5	0.6071428571428572	0.5517241379310345	0.8	0.6896551724137931	0.4736842105263158	0.7872340425531915	0.7727272727272727	0.125	0.8	0.33333333333333337	0.6451612903225806	0.65	0.33333333333333337	0.5	0.625	0.7027027027027026	0.23529411764705888	0.5	
record-415908	0.7272727272727273	0.41666666666666663	0.4516129032258065	0.5833333333333333	0.5	0.5	0.6451612903225806	0.7746478873239436	0.6271186440677966	0.65	0.5681818181818181	0.6451612903225806	0.0	0.6666666666666667	0.5	0.5789473684210527	0.5454545454545454	0.4117647058823529	0.7272727272727273	0.5	0.653061224489796	0.59375	0.6451612903225806	0.5454545454545454	0.6	0.5714285714285714	0.6285714285714286	0.5869565217391304	0.48571428571428577	0.7096774193548387	0.6428571428571428	0.7076923076923076	0.5	0.6875	0.7272727272727273	0.6451612903225806	0.5428571428571429	0.6451612903225806	0.5517241379310345	0.6216216216216216	0.4516129032258065	0.5	0.5	0.5	0.6451612903225806	0.5454545454545454	0.6451612903225806	0.6451612903225806	0.5789473684210527	0.5348837209302326	0.6774193548387097	0.6	0.5333333333333333	0.5454545454545454	0.5833333333333333	0.7058823529411764	0.71875	0.6875	0.6774193548387097	0.6451612903225806	0.6271186440677966	0.6	0.6153846153846154	0.4838709677419355	0.4516129032258065	0.6451612903225806	0.6451612903225806	0.53125	0.6451612903225806	0.6451612903225806	0.5882352941176471	0.7142857142857143	0.6829268292682926	0.5882352941176471	0.4117647058823529	0.6875	0.5882352941176471	0.6285714285714286	0.5681818181818181	0.3448275862068966	0.6451612903225806	0.6875	0.4	0.6875	0.5	0.6046511627906976	0.6451612903225806	0.4838709677419355	0.5	0.3448275862068966	0.6451612903225806	0.5428571428571429	0.62	0.7142857142857143	0.5517241379310345	0.6	0.4	0.6451612903225806	0.46153846153846156	0.5428571428571429	0.5	0.4516129032258065	0.6451612903225806	0.6451612903225806	0.5454545454545454	0.5681818181818181	0.43333333333333335	0.53125	0.5384615384615384	0.5	0.6097560975609756	0.5454545454545454	0.43333333333333335	0.6451612903225806	0.6451612903225806	0.4	0.6451612903225806	0.6451612903225806	0.4516129032258065	0.4	0.6451612903225806	0.4516129032258065	0.7647058823529411	0.5833333333333333	0.6875	0.5	0.5428571428571429	0.5833333333333333	0.5	0.6875	0.6451612903225806	0.6363636363636364	0.6451612903225806	0.4516129032258065	0.5652173913043479	0.6153846153846154	0.6875	0.5	0.6923076923076923	0.5384615384615384	0.6	0.5	0.6451612903225806	0.5833333333333333	0.5	0.6451612903225806	0.631578947368421	0.5	0.5833333333333333	0.5	0.6451612903225806	0.5882352941176471	0.6285714285714286	0.7419354838709677	0.4571428571428572	0.6875	0.6285714285714286	0.6	0.5428571428571429	0.78125	0.6451612903225806	0.6216216216216216	0.5	0.6451612903225806	0.6451612903225806	0.6451612903225806	0.6451612903225806	0.6551724137931034	0.6451612903225806	0.6	0.5	0.6724137931034483	0.7419354838709677	0.575	0.6	0.736842105263158	0.6363636363636364	0.6451612903225806	0.6451612903225806	0.46153846153846156	0.4545454545454546	0.6	0.6451612903225806	0.5428571428571429	0.4	0.5	0.6	0.4516129032258065	0.5	0.4571428571428572	0.6046511627906976	0.5	0.6451612903225806	0.3783783783783784	0.6578947368421053	0.4117647058823529	0.78125	0.6111111111111112	0.6451612903225806	0.5957446808510638	0.6875	0.5882352941176471	0.6666666666666667	0.6451612903225806	0.4516129032258065	0.4516129032258065	0.34375	0.6285714285714286	0.5882352941176471	0.6779661016949152	0.64	0.6551724137931034	0.6875	0.5454545454545454	0.5454545454545454	0.575	0.5882352941176471	0.7272727272727273	0.6363636363636364	0.5428571428571429	0.5454545454545454	0.5405405405405406	0.6451612903225806	0.6875	0.5405405405405406	0.6774193548387097	0.6	0.6451612903225806	0.6875	0.5	0.6551724137931034	0.5952380952380952	0.5517241379310345	0.4571428571428572	0.4516129032258065	0.6875	0.5	0.5625	0.6451612903225806	0.6046511627906976	0.6285714285714286	0.6451612903225806	0.6170212765957447	0.5714285714285714	0.6451612903225806	0.6875	0.6875	0.5	0.6875	0.5609756097560976	0.45945945945945943	0.5882352941176471	0.4516129032258065	0.5882352941176471	0.4571428571428572	0.6451612903225806	0.5581395348837209	0.6333333333333333	0.6304347826086957	0.5405405405405406	0.6	0.6	0.45945945945945943	0.6451612903225806	0.6774193548387097	0.6451612903225806	0.7272727272727273	0.5	0.5833333333333333	0.6875	0.34375	0.6875	0.6285714285714286	0.6451612903225806	0.6451612903225806	0.6363636363636364	0.6875	0.6	0.42105263157894735	0.6176470588235294	0.6363636363636364	0.4571428571428572	0.5454545454545454	0.3939393939393939	0.6176470588235294	0.7076923076923076	0.7272727272727273	0.5405405405405406	0.6046511627906976	0.6875	0.6875	0.6451612903225806	0.6	0.5517241379310345	0.6875	0.5365853658536586	0.6764705882352942	0.53125	0.6875	0.53125	0.5833333333333333	0.5	0.48484848484848486	0.43333333333333335	0.5333333333333333	0.6363636363636364	0.5365853658536586	0.4571428571428572	0.6875	0.6875	0.5652173913043479	0.4571428571428572	0.5454545454545454	0.6451612903225806	0.41666666666666663	0.5	0.6451612903225806	0.6875	0.5384615384615384	0.6451612903225806	0.6451612903225806	0.42500000000000004	0.5882352941176471	0.6363636363636364	0.5428571428571429	0.6285714285714286	0.6451612903225806	0.6363636363636364	0.6428571428571428	0.4516129032258065	0.5348837209302326	0.62	0.6764705882352942	0.4838709677419355	0.6451612903225806	0.6451612903225806	0.575	0.6153846153846154	0.43333333333333335	0.6451612903225806	0.6451612903225806	0.6451612903225806	0.6451612903225806	0.4117647058823529	0.6875	0.6451612903225806	0.5454545454545454	0.6153846153846154	0.5	0.5	0.6451612903225806	0.5454545454545454	0.6875	0.7272727272727273	0.6111111111111112	0.5428571428571429	0.59375	0.4117647058823529	0.6451612903225806	0.6666666666666667	0.5454545454545454	0.6875	0.6	0.5	0.5833333333333333	0.5	0.6285714285714286	0.7068965517241379	0.5428571428571429	0.5789473684210527	0.6	0.6875	0.3448275862068966	0.6451612903225806	0.6451612903225806	0.5833333333333333	0.5	0.5789473684210527	0.6875	0.5428571428571429	0.43333333333333335	0.4571428571428572	0.6875	0.6451612903225806	0.6216216216216216	0.6875	0.6875	0.6216216216216216	0.4545454545454546	0.6451612903225806	0.6451612903225806	0.6	0.6666666666666667	0.5348837209302326	0.6	0.6451612903225806	0.6451612903225806	0.5833333333333333	0.6	0.625	0.4117647058823529	0.6451612903225806	0.6451612903225806	0.6875	0.6451612903225806	0.6451612903225806	0.6	0.5	0.6666666666666667	0.6451612903225806	0.5428571428571429	0.4516129032258065	0.6451612903225806	0.4	0.6875	0.6451612903225806	0.6451612903225806	0.5405405405405406	0.5833333333333333	0.5	0.5882352941176471	0.4	0.6451612903225806	0.6470588235294117	0.6153846153846154	0.6451612903225806	0.5333333333333333	0.5789473684210527	0.6764705882352942	0.6875	0.5714285714285714	0.6451612903225806	0.5833333333333333	0.6875	0.6451612903225806	0.5	0.6097560975609756	0.6451612903225806	0.6451612903225806	0.6451612903225806	0.6451612903225806	0.4	0.5428571428571429	0.5454545454545454	0.6	0.6451612903225806	0.4516129032258065	0.4516129032258065	0.5454545454545454	0.4516129032258065	0.4516129032258065	0.5862068965517242	0.33333333333333337	0.7272727272727273	0.5714285714285714	0.6	0.5	0.5	0.5869565217391304	0.5454545454545454	0.5833333333333333	0.5	0.6666666666666667	0.6111111111111112	0.6333333333333333	0.7894736842105263	0.625	0.6451612903225806	0.6551724137931034	0.6	0.36363636363636365	0.78125	0.6	0.5	0.6363636363636364	0.5714285714285714	0.6	0.6451612903225806	
record-415983	0.8275862068965517	0.6825396825396826	0.7241379310344828	0.7580645161290323	0.65625	0.7611940298507462	0.8070175438596492	0.8350515463917526	0.6103896103896104	0.75	0.609375	0.8070175438596492	0.6666666666666667	0.0	0.6949152542372881	0.75	0.7457627118644068	0.6440677966101696	0.8172043010752688	0.6785714285714286	0.6857142857142857	0.7966101694915254	0.8070175438596492	0.7457627118644068	0.7857142857142857	0.5901639344262295	0.8064516129032258	0.6	0.6833333333333333	0.7228915662650602	0.7424242424242424	0.6419753086419753	0.7241379310344828	0.8070175438596492	0.8275862068965517	0.7857142857142857	0.7777777777777778	0.8070175438596492	0.7857142857142857	0.7777777777777778	0.7241379310344828	0.7241379310344828	0.5846153846153845	0.6911764705882353	0.7857142857142857	0.7457627118644068	0.8070175438596492	0.8275862068965517	0.75	0.6307692307692307	0.8035714285714286	0.8070175438596492	0.4918032786885246	0.7457627118644068	0.7580645161290323	0.7719298245614035	0.8035714285714286	0.8070175438596492	0.7592592592592593	0.8275862068965517	0.7411764705882353	0.8070175438596492	0.75	0.7192982456140351	0.7241379310344828	0.8070175438596492	0.7857142857142857	0.7413793103448276	0.8275862068965517	0.8070175438596492	0.7666666666666666	0.8166666666666667	0.7692307692307692	0.7241379310344828	0.6666666666666667	0.8275862068965517	0.7666666666666666	0.7868852459016393	0.7638888888888888	0.7457627118644068	0.8275862068965517	0.8070175438596492	0.7457627118644068	0.8070175438596492	0.6785714285714286	0.7352941176470589	0.8275862068965517	0.7192982456140351	0.7457627118644068	0.7241379310344828	0.8070175438596492	0.7166666666666667	0.6805555555555556	0.8166666666666667	0.8070175438596492	0.8070175438596492	0.7241379310344828	0.8070175438596492	0.676923076923077	0.7377049180327868	0.703125	0.7241379310344828	0.8275862068965517	0.8070175438596492	0.7241379310344828	0.6911764705882353	0.7192982456140351	0.7413793103448276	0.7424242424242424	0.7241379310344828	0.6612903225806452	0.7457627118644068	0.7413793103448276	0.8275862068965517	0.8275862068965517	0.7017543859649122	0.8070175438596492	0.8070175438596492	0.7457627118644068	0.7457627118644068	0.7857142857142857	0.7457627118644068	0.8297872340425532	0.7580645161290323	0.8275862068965517	0.704225352112676	0.7166666666666667	0.7166666666666667	0.7017543859649122	0.8275862068965517	0.8070175438596492	0.8055555555555556	0.8275862068965517	0.7241379310344828	0.7397260273972603	0.75	0.8275862068965517	0.7377049180327868	0.8153846153846154	0.6825396825396826	0.8070175438596492	0.7377049180327868	0.8070175438596492	0.7777777777777778	0.7166666666666667	0.7857142857142857	0.7	0.6885245901639344	0.7377049180327868	0.7377049180327868	0.8275862068965517	0.7241379310344828	0.8064516129032258	0.8793103448275862	0.6440677966101696	0.8070175438596492	0.7868852459016393	0.8070175438596492	0.7580645161290323	0.8793103448275862	0.8275862068965517	0.7377049180327868	0.65625	0.8070175438596492	0.8070175438596492	0.8070175438596492	0.7857142857142857	0.6493506493506493	0.8070175438596492	0.8070175438596492	0.7096774193548387	0.7283950617283951	0.8793103448275862	0.6825396825396826	0.8070175438596492	0.6933333333333334	0.7966101694915254	0.7857142857142857	0.8070175438596492	0.6349206349206349	0.7377049180327868	0.7636363636363637	0.7857142857142857	0.7377049180327868	0.7017543859649122	0.7580645161290323	0.7857142857142857	0.7241379310344828	0.7166666666666667	0.6666666666666667	0.65625	0.7457627118644068	0.7636363636363637	0.65625	0.796875	0.6440677966101696	0.8793103448275862	0.7375	0.8275862068965517	0.6857142857142857	0.8070175438596492	0.7457627118644068	0.8064516129032258	0.8275862068965517	0.7017543859649122	0.7241379310344828	0.5892857142857143	0.7241379310344828	0.5588235294117647	0.6133333333333333	0.5757575757575757	0.6835443037974683	0.8275862068965517	0.7457627118644068	0.7666666666666666	0.7230769230769231	0.7457627118644068	0.8275862068965517	0.6351351351351351	0.7166666666666667	0.7017543859649122	0.7301587301587302	0.8275862068965517	0.7636363636363637	0.6885245901639344	0.8035714285714286	0.7857142857142857	0.8070175438596492	0.7857142857142857	0.7301587301587302	0.6666666666666667	0.7681159420289855	0.7857142857142857	0.6885245901639344	0.7017543859649122	0.8275862068965517	0.639344262295082	0.6428571428571428	0.8275862068965517	0.676923076923077	0.7666666666666666	0.7857142857142857	0.578125	0.6129032258064516	0.7636363636363637	0.8275862068965517	0.8275862068965517	0.6206896551724138	0.8070175438596492	0.6923076923076923	0.639344262295082	0.7868852459016393	0.7457627118644068	0.7457627118644068	0.7301587301587302	0.8070175438596492	0.5806451612903225	0.8245614035087719	0.6307692307692307	0.6666666666666667	0.8070175438596492	0.8070175438596492	0.639344262295082	0.8070175438596492	0.7818181818181819	0.7857142857142857	0.8275862068965517	0.7017543859649122	0.7377049180327868	0.8275862068965517	0.6140350877192983	0.8275862068965517	0.7666666666666666	0.8070175438596492	0.7857142857142857	0.7352941176470589	0.8070175438596492	0.8070175438596492	0.6129032258064516	0.7627118644067796	0.5972222222222222	0.6666666666666667	0.7241379310344828	0.6379310344827587	0.7627118644067796	0.6585365853658536	0.8275862068965517	0.7096774193548387	0.7352941176470589	0.8070175438596492	0.8070175438596492	0.8275862068965517	0.8070175438596492	0.7857142857142857	0.8070175438596492	0.5666666666666667	0.8166666666666667	0.7627118644067796	0.8275862068965517	0.6964285714285714	0.7166666666666667	0.6949152542372881	0.711864406779661	0.7413793103448276	0.6666666666666667	0.5774647887323944	0.7536231884057971	0.75	0.847457627118644	0.8275862068965517	0.6268656716417911	0.6206896551724138	0.7666666666666666	0.8275862068965517	0.639344262295082	0.6206896551724138	0.8070175438596492	0.8070175438596492	0.6825396825396826	0.7857142857142857	0.8070175438596492	0.6716417910447761	0.7868852459016393	0.7714285714285715	0.7377049180327868	0.7457627118644068	0.8070175438596492	0.7536231884057971	0.7611940298507462	0.7017543859649122	0.7808219178082192	0.6986301369863014	0.7758620689655172	0.7413793103448276	0.8275862068965517	0.8275862068965517	0.703125	0.75	0.7192982456140351	0.7857142857142857	0.8070175438596492	0.8275862068965517	0.7857142857142857	0.6885245901639344	0.8070175438596492	0.8070175438596492	0.7457627118644068	0.7692307692307692	0.639344262295082	0.7377049180327868	0.8070175438596492	0.7457627118644068	0.8275862068965517	0.8275862068965517	0.7936507936507937	0.796875	0.7966101694915254	0.6666666666666667	0.8275862068965517	0.7666666666666666	0.7457627118644068	0.8070175438596492	0.8070175438596492	0.7241379310344828	0.7580645161290323	0.7164179104477613	0.7868852459016393	0.8255813953488372	0.7580645161290323	0.7692307692307692	0.7857142857142857	0.8070175438596492	0.7241379310344828	0.8070175438596492	0.8070175438596492	0.7377049180327868	0.6440677966101696	0.7878787878787878	0.8070175438596492	0.7580645161290323	0.7413793103448276	0.6666666666666667	0.8070175438596492	0.8275862068965517	0.7580645161290323	0.8070175438596492	0.8275862068965517	0.7377049180327868	0.7580645161290323	0.8275862068965517	0.8275862068965517	0.8070175438596492	0.6575342465753424	0.6911764705882353	0.8070175438596492	0.8275862068965517	0.8070175438596492	0.7580645161290323	0.8070175438596492	0.6470588235294117	0.7301587301587302	0.8275862068965517	0.8275862068965517	0.8070175438596492	0.8070175438596492	0.8070175438596492	0.7857142857142857	0.75	0.75	0.8070175438596492	0.7580645161290323	0.7241379310344828	0.7857142857142857	0.7457627118644068	0.8070175438596492	0.8070175438596492	0.8275862068965517	0.7096774193548387	0.7580645161290323	0.7666666666666666	0.7666666666666666	0.7241379310344828	0.8070175438596492	0.7162162162162162	0.75	0.8070175438596492	0.8205128205128205	0.7692307692307692	0.7966101694915254	0.8275862068965517	0.676923076923077	0.8275862068965517	0.7377049180327868	0.8275862068965517	0.8070175438596492	0.6825396825396826	0.7424242424242424	0.8070175438596492	0.7857142857142857	0.7857142857142857	0.8070175438596492	0.7017543859649122	0.7166666666666667	0.7017543859649122	0.7857142857142857	0.7857142857142857	0.7017543859649122	0.7457627118644068	0.7241379310344828	0.6785714285714286	0.6785714285714286	0.8035714285714286	0.6129032258064516	0.8070175438596492	0.6349206349206349	0.8275862068965517	0.7666666666666666	0.7241379310344828	0.6417910447761195	0.7457627118644068	0.7777777777777778	0.6666666666666667	0.6	0.7741935483870968	0.8035714285714286	0.8554216867469879	0.6268656716417911	0.7857142857142857	0.6835443037974683	0.7857142857142857	0.6885245901639344	0.8793103448275862	0.7857142857142857	0.7166666666666667	0.8166666666666667	0.7536231884057971	0.8070175438596492	0.8070175438596492	
record-416017	0.6551724137931034	0.6153846153846154	0.4482758620689655	0.5882352941176471	0.6097560975609756	0.5	0.6071428571428572	0.7462686567164178	0.7213114754098361	0.4545454545454546	0.6363636363636364	0.6551724137931034	0.5	0.6949152542372881	0.0	0.5428571428571429	0.5483870967741935	0.5428571428571429	0.7727272727272727	0.4482758620689655	0.6595744680851063	0.6	0.6551724137931034	0.5483870967741935	0.5	0.6428571428571428	0.59375	0.6808510638297872	0.5294117647058824	0.6949152542372881	0.5	0.7727272727272727	0.3928571428571429	0.5555555555555556	0.6071428571428572	0.5	0.4516129032258065	0.6071428571428572	0.5555555555555556	0.5	0.4482758620689655	0.4482758620689655	0.6595744680851063	0.5365853658536586	0.6071428571428572	0.5	0.6071428571428572	0.7	0.5833333333333333	0.6666666666666667	0.5925925925925926	0.5555555555555556	0.6595744680851063	0.5	0.5882352941176471	0.4814814814814815	0.5925925925925926	0.6071428571428572	0.48	0.6551724137931034	0.6551724137931034	0.6551724137931034	0.5	0.4285714285714286	0.3928571428571429	0.5555555555555556	0.6071428571428572	0.48275862068965514	0.5555555555555556	0.6071428571428572	0.59375	0.6	0.6216216216216216	0.5	0.5	0.6071428571428572	0.6363636363636364	0.5483870967741935	0.5714285714285714	0.3928571428571429	0.6071428571428572	0.6071428571428572	0.5	0.6071428571428572	0.3928571428571429	0.6097560975609756	0.5555555555555556	0.48275862068965514	0.59375	0.3928571428571429	0.6071428571428572	0.4516129032258065	0.7547169811320755	0.6	0.5555555555555556	0.6551724137931034	0.33333333333333337	0.6551724137931034	0.6428571428571428	0.5	0.6153846153846154	0.5	0.5555555555555556	0.6071428571428572	0.5	0.5	0.37037037037037035	0.4285714285714286	0.4117647058823529	0.4482758620689655	0.6153846153846154	0.5	0.4285714285714286	0.7	0.6551724137931034	0.5	0.6071428571428572	0.6071428571428572	0.4482758620689655	0.3928571428571429	0.6071428571428572	0.4482758620689655	0.7538461538461538	0.5882352941176471	0.6551724137931034	0.6595744680851063	0.5	0.5	0.4482758620689655	0.6551724137931034	0.6551724137931034	0.6097560975609756	0.6551724137931034	0.4482758620689655	0.6595744680851063	0.5428571428571429	0.6551724137931034	0.5	0.6285714285714286	0.6153846153846154	0.6071428571428572	0.4	0.6071428571428572	0.4516129032258065	0.4516129032258065	0.5555555555555556	0.7704918032786885	0.6216216216216216	0.5	0.4516129032258065	0.6551724137931034	0.5483870967741935	0.6764705882352942	0.7142857142857143	0.5833333333333333	0.6551724137931034	0.6363636363636364	0.5555555555555556	0.4516129032258065	0.7142857142857143	0.6551724137931034	0.5454545454545454	0.575	0.6551724137931034	0.6071428571428572	0.6551724137931034	0.5555555555555556	0.728813559322034	0.6551724137931034	0.6551724137931034	0.5	0.6296296296296297	0.6666666666666667	0.65	0.6551724137931034	0.7454545454545455	0.6451612903225806	0.5555555555555556	0.6551724137931034	0.6097560975609756	0.5	0.5	0.5555555555555556	0.5	0.4482758620689655	0.4516129032258065	0.6071428571428572	0.4482758620689655	0.4516129032258065	0.5	0.6428571428571428	0.4482758620689655	0.5555555555555556	0.575	0.6666666666666667	0.5833333333333333	0.7586206896551724	0.7142857142857143	0.6071428571428572	0.6595744680851063	0.6071428571428572	0.59375	0.6764705882352942	0.6071428571428572	0.5	0.4482758620689655	0.5714285714285714	0.5	0.7222222222222222	0.7704918032786885	0.7254901960784313	0.75	0.5555555555555556	0.4482758620689655	0.4482758620689655	0.6153846153846154	0.4482758620689655	0.6551724137931034	0.7586206896551724	0.4	0.4482758620689655	0.5	0.6551724137931034	0.5	0.5	0.5384615384615384	0.6071428571428572	0.6071428571428572	0.5555555555555556	0.5428571428571429	0.728813559322034	0.4864864864864865	0.5	0.5	0.3928571428571429	0.5555555555555556	0.5405405405405406	0.625	0.5555555555555556	0.6428571428571428	0.5	0.5	0.6521739130434783	0.6744186046511628	0.43999999999999995	0.6071428571428572	0.6071428571428572	0.5833333333333333	0.5555555555555556	0.6341463414634146	0.5789473684210527	0.6363636363636364	0.5	0.59375	0.4545454545454546	0.5555555555555556	0.5952380952380952	0.6428571428571428	0.6363636363636364	0.6216216216216216	0.6551724137931034	0.6551724137931034	0.5789473684210527	0.5	0.5384615384615384	0.6071428571428572	0.5555555555555556	0.5	0.4516129032258065	0.5555555555555556	0.5714285714285714	0.6071428571428572	0.59375	0.5555555555555556	0.5	0.7045454545454546	0.6071428571428572	0.5	0.6428571428571428	0.48275862068965514	0.736842105263158	0.6216216216216216	0.5	0.5294117647058824	0.5333333333333333	0.791044776119403	0.6071428571428572	0.6216216216216216	0.7045454545454546	0.6071428571428572	0.5555555555555556	0.7	0.5	0.5555555555555556	0.5555555555555556	0.6428571428571428	0.5517241379310345	0.48275862068965514	0.6071428571428572	0.4285714285714286	0.4516129032258065	0.4	0.2592592592592593	0.4285714285714286	0.6304347826086957	0.6666666666666667	0.6097560975609756	0.4545454545454546	0.6551724137931034	0.6071428571428572	0.6304347826086957	0.5833333333333333	0.5483870967741935	0.7	0.5405405405405406	0.5	0.6551724137931034	0.6071428571428572	0.5789473684210527	0.6071428571428572	0.6071428571428572	0.6046511627906976	0.59375	0.6744186046511628	0.5	0.5483870967741935	0.5555555555555556	0.6428571428571428	0.5405405405405406	0.3928571428571429	0.6046511627906976	0.7307692307692308	0.6	0.4285714285714286	0.7	0.6551724137931034	0.6829268292682926	0.6216216216216216	0.48275862068965514	0.5555555555555556	0.6551724137931034	0.6551724137931034	0.5555555555555556	0.5	0.5555555555555556	0.6551724137931034	0.5	0.5833333333333333	0.5789473684210527	0.4516129032258065	0.6071428571428572	0.5483870967741935	0.6071428571428572	0.5555555555555556	0.5757575757575757	0.4516129032258065	0.6	0.5428571428571429	0.7	0.5483870967741935	0.4482758620689655	0.6071428571428572	0.6551724137931034	0.5483870967741935	0.5882352941176471	0.6097560975609756	0.6764705882352942	0.7586206896551724	0.5454545454545454	0.6216216216216216	0.5555555555555556	0.6071428571428572	0.33333333333333337	0.6551724137931034	0.5555555555555556	0.5454545454545454	0.6216216216216216	0.6216216216216216	0.5555555555555556	0.5454545454545454	0.4285714285714286	0.5833333333333333	0.6071428571428572	0.7	0.5	0.5555555555555556	0.6551724137931034	0.5454545454545454	0.4516129032258065	0.6551724137931034	0.7	0.6551724137931034	0.6730769230769231	0.6666666666666667	0.6551724137931034	0.7	0.5555555555555556	0.5882352941176471	0.6551724137931034	0.6875	0.5428571428571429	0.7	0.6551724137931034	0.5555555555555556	0.6071428571428572	0.6071428571428572	0.5	0.5833333333333333	0.734375	0.6071428571428572	0.5	0.33333333333333337	0.6071428571428572	0.5483870967741935	0.6071428571428572	0.6551724137931034	0.6551724137931034	0.6216216216216216	0.5454545454545454	0.59375	0.59375	0.5	0.6071428571428572	0.7058823529411764	0.6216216216216216	0.5555555555555556	0.6304347826086957	0.6216216216216216	0.6	0.6551724137931034	0.6744186046511628	0.6551724137931034	0.5	0.6551724137931034	0.6551724137931034	0.6153846153846154	0.5405405405405406	0.6551724137931034	0.6071428571428572	0.6071428571428572	0.6071428571428572	0.3928571428571429	0.4516129032258065	0.5	0.5555555555555556	0.5555555555555556	0.5	0.4482758620689655	0.5	0.4482758620689655	0.4482758620689655	0.5925925925925926	0.575	0.5555555555555556	0.6744186046511628	0.6551724137931034	0.4482758620689655	0.5	0.6521739130434783	0.5483870967741935	0.5454545454545454	0.5833333333333333	0.7454545454545455	0.4838709677419355	0.5925925925925926	0.653061224489796	0.7142857142857143	0.6071428571428572	0.6607142857142857	0.5555555555555556	0.5428571428571429	0.7586206896551724	0.5	0.4	0.5517241379310345	0.6428571428571428	0.6551724137931034	0.5555555555555556	
