record-152881	0	1.984	2.476	2.192	3.1	3.156	3.836	5.44	2.684	1.94	2.4	2.268	2.224	2.268	1.852	2.476	2.268	2.192	3.724	2.268	2.476	2.192	2.268	3.836	3.42	5.516	5.472	5.14	1.908	5.348	3.552	2.684	2.268	2.268	2.06	2.116	2.928	2.06	1.644	3.684	2.608	5.932	3.516	2.268	2.268	1.908	2.268	2.816	2.684	1.776	1.908	2.192	5.012	5.932	2.476	2.928	1.908	2.532	1.908	1.908	2.892	2.684	2.06	1.908	1.852	2.116	1.852	1.908	1.852	2.268	1.908	1.436	2.476	2.06	2.268	1.644	2.268	2.476	2.476	2.116	2.268	2.06	2.892	1.644	2.248	2.476	1.952	1.908	2.892	1.852	2.268	2.892	3.024	1.436	1.644	2.268	2.116	2.684	2.892	1.852	2.268	2.268	1.852	1.644	2.248	3.1	1.908	2.248	2.608	2.684	2.816	2.684	2.248	3.024	2.476	2.816	2.608	2.816	2.248	2.456	2.268	2.248	3.648	2.608	2.476	3.024	3.024	2.608	2.608	3.388	1.984	3.156	3.024	2.456	3.856	3.024	2.816	3.232	2.74	3.024	2.192	3.004	2.4	3.42	3.004	2.816	5.724	5.14	4.252	4.044	2.608	3.836	3.76	2.324	3.212	3.628	3.552	3.212	3.836	3.344	3.836	4.252	4.46	3.628	3.628	3.836	3.628	5.14	3.836	3.836	3.42	3.232	3.136	5.724	3.628	5.724	4.168	3.42	5.932	5.932	5.44	4.244	5.428	4.76	5.516	4.76	5.724	4.924	4.76	5.516	5.724	2.148	2.06	2.476	1.776	2.06	2.192	2.684	2.06	2.476	1.6	3.024	3.288	2.4	4.044	2.608	5.14	2.476	2.268	3.1	1.644	2.476	2.116	1.908	2.476	1.852	1.908	1.392	1.644	2.684	2.06	2.116	2.476	1.908	2.476	1.908	2.268	1.908	1.908	3.308	3.1	2.532	2.116	2.684	2.268	2.06	2.06	2.476	1.852	2.268	2.476	2.116	2.06	2.684	2.116	2.268	2.268	2.324	2.268	2.06	2.06	2.684	3.156	2.684	2.684	1.852	2.476	1.852	1.644	2.892	2.06	2.476	2.268	1.852	1.908	2.268	1.852	2.784	2.928	2.116	3.08	2.06	2.684	1.952	1.852	2.476	2.268	1.852	3.724	2.06	3.516	2.06	2.476	1.908	1.908	3.516	1.94	2.476	3.308	2.268	1.644	2.684	2.116	1.644	2.368	2.268	1.644	1.852	1.744	1.908	2.684	1.852	1.644	1.908	2.476	2.892	2.268	1.776	2.248	1.744	2.268	2.684	1.908	2.684	2.684	2.532	2.268	2.06	2.684	1.644	2.268	2.268	2.324	3.1	2.892	2.892	2.116	3.496	2.892	1.852	3.1	2.684	1.776	1.908	2.684	2.476	2.684	3.1	1.908	2.532	2.268	2.684	2.476	2.74	2.16	2.06	2.476	3.1	2.892	2.476	2.268	3.1	2.532	1.852	2.248	3.476	1.776	2.684	2.684	1.656	2.248	2.06	2.268	2.608	2.608	2.892	2.816	3.156	2.4	2.892	1.984	2.28	2.972	2.268	1.864	3.024	2.816	3.44	2.764	2.608	2.248	2.248	2.192	2.684	3.476	3.18	2.816	2.4	3.024	2.816	2.816	2.268	2.608	2.816	2.608	2.684	2.456	1.984	2.684	3.648	3.648	3.024	3.024	2.664	2.608	2.608	2.456	2.608	3.232	2.816	3.024	3.476	2.608	3.648	2.872	3.024	2.816	3.024	3.628	3.648	2.816	3.44	2.608	3.42	4.516	2.884	3.232	3.232	3.156	3.836	3.856	3.836	4.252	3.836	3.628	5.932	3.76	4.044	3.42	3.42	3.42	5.932	4.76	5.428	5.932	5.932	5.932	5.34	2.532	2.684	2.684	1.908	3.024	2.06	3.724	2.268	2.476	2.476	3.308	2.06	2.4	2.06	4.14	2.928	1.908	1.568	3.1	2.268	3.156	1.852	2.268	1.984	1.852	1.852	2.456	2.476	2.684	5.516
record-153157	4.661	0	4.772	4.225	4.76	3.006	4.565	4.76	4.546	3.496	2.713	3.496	4.772	4.756	1.985	4.273	3.496	3.448	4.76	3.77	4.062	4.772	3.496	3.006	4.516	4.76	3.006	4.772	3.788	4.772	3.006	4.225	2.761	5.093	5.828	4.176	3.006	3.496	3.382	4.08	3.836	4.76	4.772	3.006	3.496	3.006	4.273	4.613	4.176	3.006	3.788	3.836	4.516	4.76	3.006	4.08	3.788	4.42	3.788	4.08	4.273	3.836	2.373	2.665	1.985	4.176	3.108	3.006	4.273	3.496	3.448	4.705	4.273	3.885	3.496	3.885	3.496	4.45	3.885	2.325	5.049	3.108	4.772	3.885	2.373	4.772	4.273	2.713	4.772	3.496	3.496	3.77	4.613	4.705	3.108	3.496	2.325	4.273	4.661	4.062	4.273	3.496	4.273	3.245	3.77	3.885	2.325	3.005	4.772	4.516	4.225	4.086	3.005	4.613	3.885	4.772	3.836	4.176	3.005	3.005	3.496	2.665	4.76	3.836	3.885	4.76	3.448	4.772	4.516	4.42	3.973	4.76	4.565	3.006	4.772	4.516	4.225	4.11	4.76	4.76	3.836	3.005	3.836	3.006	3.006	4.225	4.772	4.772	4.176	4.062	4.225	4.086	4.772	4.176	4.176	4.565	3.006	4.176	3.925	4.565	4.565	4.176	4.76	4.176	4.176	4.086	4.516	4.766	4.76	4.76	4.659	4.76	4.176	4.76	4.176	4.76	4.086	4.176	4.76	4.76	4.772	4.086	4.516	4.772	4.772	3.006	4.76	3.006	3.006	4.76	4.76	3.77	2.373	3.979	4.76	3.496	4.273	4.772	3.885	4.766	3.496	4.613	4.42	4.225	4.772	3.836	4.772	3.885	4.273	3.006	3.633	4.273	4.176	2.665	4.158	4.273	3.788	4.273	3.108	2.373	2.373	2.665	3.885	3.788	3.77	3.788	3.77	4.08	3.788	4.76	4.76	3.006	4.08	4.661	3.006	6.216	2.373	3.979	4.273	4.273	3.883	4.176	4.546	4.265	3.788	5.049	5.049	4.062	7.381	3.77	4.546	4.273	4.772	4.273	4.76	4.273	3.005	4.08	4.225	3.633	3.496	4.158	4.158	4.08	3.788	3.633	5.828	4.546	3.005	4.176	3.006	5.049	4.273	4.273	3.885	4.273	3.448	4.273	4.772	3.883	4.772	3.108	3.885	3.788	3.925	4.76	4.661	4.273	4.613	3.448	4.08	4.273	3.788	3.382	4.08	3.496	6.102	3.006	3.885	3.006	3.108	2.373	1.985	2.665	4.772	3.006	3.496	2.713	4.661	3.885	4.158	4.498	3.448	4.273	2.713	2.665	3.496	3.108	3.931	3.633	3.496	3.006	3.836	4.76	3.496	4.225	4.176	4.661	3.496	3.973	3.885	4.273	3.722	2.665	4.273	3.885	4.273	4.76	2.713	4.08	3.496	4.273	2.761	4.565	4.08	3.585	2.761	4.76	4.11	3.382	3.496	4.772	4.42	5.828	4.08	3.788	3.496	4.176	4.273	3.885	3.005	3.108	3.496	3.836	3.836	4.613	4.613	4.76	3.448	4.76	3.448	4.42	2.325	3.496	4.225	3.788	4.225	4.76	4.08	3.836	2.665	4.402	3.448	4.273	4.176	4.08	4.225	4.176	2.325	4.225	4.613	4.158	4.613	4.76	3.836	4.273	4.42	3.836	3.836	4.76	4.772	4.613	4.565	4.08	3.836	3.836	4.08	4.225	4.76	4.225	3.585	2.713	3.836	4.772	4.42	4.613	4.225	4.613	4.176	4.176	4.613	4.772	3.836	4.565	4.76	4.42	3.722	4.76	4.772	4.565	4.772	4.565	4.176	4.565	4.176	4.76	4.76	4.76	2.665	4.176	4.565	4.772	4.772	4.516	4.76	4.76	4.772	3.006	2.665	4.546	4.546	4.08	3.006	4.705	3.006	4.273	2.761	4.772	3.006	3.108	3.836	3.496	3.006	4.223	4.08	4.742	3.006	3.496	4.319	3.496	3.006	3.885	3.496	3.006	3.006	4.766	4.176	4.76
record-153510	2.99	3.359	0	3.004	4.993	2.381	4.694	3.74	4.427	4.016	2.972	3.688	3.858	3.186	2.306	3.922	3.688	3.283	5.076	3.688	3.618	3.359	3.688	3.447	3.856	4.196	2.53	3.271	3.113	3.499	4.31	4.341	3.705	3.317	2.99	2.692	3.253	3.269	2.524	4.815	4.028	5.076	4.696	3.756	3.688	2.913	4.996	4.262	3.53	2.53	2.366	3.19	3.87	5.076	3.285	3.253	2.366	3.06	2.913	3.766	3.06	4.028	4.016	2.476	3.942	2.692	2.943	2.913	2.664	3.688	3.702	2.012	3.922	3.176	3.688	2.338	3.688	3.643	4.194	4.186	3.317	3.362	3.858	2.338	2.213	3.271	2.664	2.972	4.277	2.85	3.688	4.794	4.681	2.012	2.524	3.688	3.065	4.341	4.667	2.664	3.502	3.688	2.664	2.524	2.67	3.06	2.646	2.816	3.484	3.87	4.354	3.368	3.977	4.681	4.014	4.277	4.028	4.354	3.977	4.396	3.688	3.977	4.657	3.06	4.014	4.196	3.06	3.06	3.842	3.06	2.548	3.74	4.681	4.396	4.277	4.275	4.354	5.376	3.67	4.588	3.19	4.164	3.609	3.06	4.285	4.354	4.277	3.271	5.376	5.148	3.935	4.206	3.359	3.018	3.53	4.275	2.53	3.53	4.006	3.358	4.694	3.06	5.034	4.368	4.368	3.787	4.275	3.271	4.602	4.602	3.723	4.238	3.032	4.657	4.368	4.657	2.87	3.949	5.076	5.076	3.359	3.368	4.708	4.957	3.858	4.546	4.615	3.028	4.127	4.238	4.657	3.688	2.632	3.881	3.657	3.269	3.004	3.271	3.176	3.271	4.016	4.681	3.06	3.516	4.696	4.028	3.271	4.014	3.502	2.609	2.208	3.922	2.692	2.713	3.532	2.664	3.113	2.664	2.524	4.802	2.632	2.895	4.014	2.913	3.927	2.913	3.688	3.766	2.913	4.657	4.238	3.393	3.532	4.248	2.866	2.99	3.379	3.881	2.664	3.502	3.551	2.692	2.86	2.902	3.532	3.317	3.317	4.274	3.317	3.269	4.035	4.341	4.696	4.341	4.155	2.664	3.053	3.934	2.474	5.024	3.269	4.101	3.317	2.664	2.913	3.688	2.664	4.427	3.053	2.678	3.766	2.99	4.341	2.664	3.504	3.922	3.283	3.616	4.696	2.713	3.858	3.362	4.014	3.113	3.156	5.076	2.99	3.922	4.681	3.283	2.338	4.341	3.532	2.524	3.317	3.688	2.338	2.664	2.338	3.13	3.06	2.96	1.887	3.766	3.858	3.028	3.781	2.041	2.99	2.338	3.682	4.022	2.913	4.341	3.719	3.733	3.688	3.362	3.745	2.208	3.688	2.866	3.951	4.993	4.794	4.354	2.678	4.667	5.376	2.534	4.99	4.341	2.366	2.986	4.341	4.014	4.341	4.657	3.766	5.024	3.688	4.341	3.378	3.856	2.99	2.222	3.378	4.993	3.06	4.049	3.688	4.696	3.06	2.664	4.696	3.977	2.352	3.53	4.341	3.176	3.053	3.362	3.688	4.028	3.06	4.262	4.262	3.74	3.06	4.574	2.864	3.06	3.826	3.688	2.678	3.06	4.354	5.076	4.396	3.877	3.977	4.621	3.283	4.341	3.06	5.57	4.354	3.06	4.085	4.354	4.262	3.682	3.842	4.169	4.028	4.341	3.018	4.028	4.028	5.076	4.696	4.681	4.681	5.57	4.028	4.028	4.396	3.935	4.238	4.354	3.06	2.972	4.028	4.696	3.06	4.681	4.354	4.681	5.134	4.368	4.262	4.696	4.028	3.856	4.657	3.018	4.546	5.007	3.359	4.694	4.277	4.694	5.376	4.694	4.368	5.034	3.74	5.021	3.405	3.949	3.856	4.696	5.376	4.708	5.076	5.034	4.696	3.866	2.986	4.427	4.427	3.766	3.028	2.99	3.866	3.502	3.378	3.271	3.593	3.362	3.977	3.269	3.447	3.053	3.766	3.359	3.447	3.688	2.885	2.85	2.866	2.678	2.85	2.893	2.395	3.271	4.341	4.196
record-153758	5.494	6.989	6.082	0	6.686	5.261	5.941	7.14	5.477	5.462	3.847	3.847	6.686	6.082	2.434	5.477	3.847	2.434	7.14	3.847	4.859	6.686	3.847	5.834	5.941	6.913	5.834	6.989	4.782	6.989	5.998	5.477	4.322	4.867	3.454	6.369	5.998	3.847	2.434	6.8	3.847	7.14	7.37	5.922	3.847	5.507	5.887	6.157	5.629	6.112	5.364	3.847	5.887	7.14	5.356	6.369	5.547	5.78	5.364	5.78	5.477	3.847	3.847	4.865	2.434	5.969	2.434	5.507	7.586	3.847	2.434	3.454	5.477	4.873	3.847	6.281	3.847	6.082	4.873	2.434	7.14	2.434	7.29	6.281	3.847	6.686	7.3	3.847	6.157	3.847	3.847	3.847	6.157	3.454	2.434	3.847	2.434	5.477	6.082	3.114	5.477	3.847	5.887	2.434	2.787	4.63	2.434	5.531	6.762	6.686	5.261	4.474	4.474	6.157	4.873	6.157	3.847	5.31	4.474	4.474	2.787	3.114	7.198	3.847	4.873	7.142	2.434	6.762	6.295	5.887	3.847	7.198	6.157	4.527	6.989	5.941	5.261	3.847	6.762	6.762	3.847	4.474	3.847	5.834	5.834	5.261	6.989	6.989	4.527	3.114	5.261	4.474	6.989	5.31	4.527	5.941	5.834	4.527	3.114	5.941	5.941	4.527	6.913	4.527	4.527	4.474	5.941	7.064	6.837	6.837	5.941	7.14	4.527	7.255	4.527	7.14	4.474	4.527	7.255	7.255	6.989	4.474	5.887	6.989	6.989	5.834	6.913	5.834	5.834	7.14	7.14	3.559	3.847	4.873	6.686	3.847	5.477	7.29	4.873	6.686	5.69	6.157	4.474	5.261	6.837	3.847	6.989	4.873	5.477	5.834	3.847	5.477	5.78	4.865	4.873	5.477	3.114	5.205	2.434	3.847	3.847	3.114	4.873	5.364	3.847	5.78	3.847	5.364	5.364	7.142	7.37	5.834	5.969	6.082	5.356	4.867	3.847	4.873	7.586	5.477	4.873	5.969	5.477	4.474	5.969	7.533	7.533	4.859	7.389	3.847	5.477	5.477	6.233	5.477	6.686	5.887	5.96	7.586	5.477	3.467	3.847	4.873	4.873	7.586	6.369	3.467	3.454	5.477	5.583	6.369	5.507	7.389	5.477	7.3	5.887	5.477	2.434	4.867	6.989	4.873	6.989	2.434	4.873	3.114	4.223	7.37	6.514	5.477	6.157	2.434	6.281	5.477	5.969	2.434	6.907	3.847	3.454	5.261	6.281	4.527	2.434	3.847	2.434	3.114	6.082	6.397	3.847	4.598	8.122	6.281	4.873	5.261	2.434	5.477	4.598	4.865	3.847	2.434	4.598	3.847	3.847	5.356	3.847	6.686	3.847	5.261	6.906	6.082	3.847	4.598	4.873	5.477	2.434	3.114	5.477	4.873	5.477	7.29	3.847	6.915	3.847	5.477	4.752	6.233	6.907	2.434	4.752	6.686	3.847	2.434	3.847	6.686	6.12	3.454	5.547	6.8	3.847	4.527	5.477	4.598	5.205	2.434	3.847	3.847	3.847	6.157	6.157	7.14	2.434	6.686	2.434	6.513	2.434	3.847	6.624	3.278	5.261	7.142	6.084	3.847	3.114	4.474	2.434	5.477	4.527	5.887	5.261	4.527	2.434	5.261	6.157	4.873	6.157	6.762	3.847	5.477	5.78	3.847	3.847	7.198	6.837	6.157	6.157	6.513	3.847	3.847	6.649	5.261	7.14	5.261	2.434	3.847	3.847	6.989	5.78	6.157	5.261	6.157	4.527	4.527	6.157	7.142	3.847	5.941	7.14	5.154	2.434	6.762	6.989	5.941	6.989	5.941	4.527	5.941	4.527	6.913	7.198	6.837	3.114	4.527	5.941	6.989	6.989	5.887	7.255	6.913	6.989	5.834	4.865	5.477	5.477	5.364	5.834	3.454	5.834	5.477	4.752	6.686	6.565	2.434	3.847	3.847	5.834	5.704	5.364	5.531	6.397	3.847	5.261	2.787	5.356	4.873	3.847	5.356	5.507	6.686	5.234	6.913
record-153870	5.569	5.1	5.604	5.1	0	4.008	6.448	5.1	6.448	5.906	4.893	5.548	5.604	5.332	3.983	6.026	5.548	4.896	6.448	5.548	5.172	5.1	5.548	4.934	5.604	5.604	4.008	5.332	4.75	6.15	6.995	6.448	5.903	6.139	5.569	4.42	4.924	5.126	4.134	6.19	5.888	6.448	6.448	6.491	5.548	4.75	7.404	6.026	5.384	4.008	3.97	5.044	5.604	6.448	4.934	4.924	3.97	4.42	4.75	5.346	6.87	5.888	5.906	4.177	5.346	4.42	4.556	4.75	4.999	5.548	5.318	3.86	6.026	5.274	5.548	4.429	5.548	7.973	5.97	5.768	6.139	4.978	5.604	4.429	4.131	5.332	4.999	4.893	6.026	4.704	5.548	6.613	6.448	3.86	4.134	5.548	4.745	6.448	6.448	7.34	5.604	5.548	4.999	4.134	5.602	5.59	4.323	4.512	5.168	5.604	6.448	5.154	5.346	6.448	6.118	6.026	5.888	6.228	5.346	5.768	5.318	5.346	6.026	7.154	6.118	5.604	6.584	7.715	5.604	4.42	4.872	5.1	6.448	5.768	6.026	6.026	6.448	6.613	5.1	6.026	5.044	5.779	5.466	6.623	5.779	6.448	6.026	5.332	6.613	6.613	6.026	5.998	5.1	4.88	5.384	6.026	4.008	5.384	6.208	5.1	6.448	7.494	6.448	6.228	6.228	5.576	6.026	5.332	6.026	6.026	5.604	5.604	4.88	6.026	6.228	6.026	4.65	5.806	6.448	6.448	5.1	5.154	6.448	6.19	5.604	6.63	6.026	4.512	6.208	5.604	6.026	5.548	4.553	6.118	5.1	5.126	5.1	5.332	5.274	5.332	5.906	6.448	4.42	5.604	6.448	5.888	5.332	6.118	5.604	4.09	4.532	6.026	4.42	5.389	5.172	6.559	4.75	4.999	4.134	6.19	4.553	4.599	6.118	4.75	6.63	4.75	5.548	5.346	4.75	6.026	5.604	6.069	5.172	6.026	4.512	5.569	5.333	6.118	4.999	5.604	6.233	4.42	5.332	4.982	5.172	6.139	6.139	5.594	6.139	5.126	6.982	6.448	6.448	6.448	5.604	4.999	5.729	5.346	5.062	6.613	5.126	6.118	6.476	7.487	4.75	5.548	4.999	6.448	5.729	4.42	5.346	5.569	6.448	4.999	5.632	6.026	4.896	6.559	6.448	5.389	5.604	4.978	6.118	4.75	4.75	6.448	5.569	6.026	6.448	4.896	7.065	6.448	5.172	4.134	8.332	5.548	4.429	4.934	4.429	4.934	6.244	4.911	3.561	5.346	5.604	4.512	5.548	3.967	5.569	4.429	5.696	6.026	4.75	6.448	5.673	5.444	5.548	4.978	6.099	4.532	5.548	4.512	5.594	6.448	6.613	6.448	4.42	6.448	6.613	4.872	6.613	6.448	3.97	4.663	6.448	6.118	6.448	6.026	5.346	6.613	5.548	6.448	5.357	5.604	7.909	4.302	5.357	6.448	6.246	6.19	5.548	6.448	4.42	4.999	6.19	5.346	4.2	5.384	6.448	4.98	5.729	4.978	5.548	5.888	7.154	6.026	6.026	5.1	7.007	6.026	4.474	4.42	4.323	5.548	4.42	6.502	6.448	6.448	5.768	5.346	5.346	7.335	4.896	6.448	6.65	6.613	6.448	7.072	6.439	6.448	6.026	5.696	5.604	5.604	5.888	6.448	4.42	5.888	5.888	6.448	6.448	6.448	6.448	6.613	5.888	5.888	5.768	6.026	5.604	6.448	6.584	4.893	5.888	6.448	4.42	6.448	6.448	6.448	6.613	6.228	6.026	6.448	5.888	5.604	6.026	4.42	6.63	6.448	5.1	6.448	6.026	6.448	6.613	6.448	6.228	6.448	5.1	6.448	5.085	5.806	5.604	6.448	6.613	6.448	6.448	6.448	6.448	5.357	4.663	6.448	6.448	5.346	4.512	5.569	5.357	5.604	5.357	5.332	4.924	4.978	5.346	5.126	4.934	5.729	5.346	4.99	4.934	5.548	5.1	4.704	4.512	4.769	4.704	5.484	4.008	5.332	6.228	5.604
record-154548	6.12	5.1	5.1	4.241	4.917	0	8.039	5.1	4.577	6.944	4.969	5.763	5.1	4.917	5.1	4.917	6.77	5.982	4.917	4.917	5.1	5.1	5.423	6.178	8.039	4.917	4.577	5.1	8.039	5.1	5.1	4.917	4.917	6.171	6.12	7.14	5.1	6.77	5.1	5.1	4.807	4.917	5.1	5.1	6.373	5.1	5.1	7.14	5.1	6.178	6.12	5.763	5.1	5.1	4.917	6.604	5.423	7.14	5.1	7.14	7.871	5.763	5.1	5.982	5.1	6.12	5.601	5.1	6.12	6.77	6.62	6.869	5.423	7.14	6.77	6.12	6.77	7.736	7.816	4.127	6.12	5.601	5.1	6.12	5.1	4.917	6.12	7.14	5.1	4.127	6.926	6.518	4.83	6.533	5.1	6.77	4.127	7.14	5.1	6.443	5.153	5.713	6.12	5.038	5.713	6.269	4.127	4.917	6.518	6.443	6.443	4.917	5.1	7.14	7.14	5.1	6.214	5.423	5.1	5.1	4.581	3.787	5.423	6.033	6.926	4.492	4.577	6.443	4.492	9.52	5.353	4.577	8.039	4.969	8.039	4.492	6.926	6.434	5.423	6.518	5.353	4.467	5.763	5.597	4.577	6.488	5.423	3.787	6.434	4.577	7.14	4.241	6.103	5.423	5.423	8.039	4.577	5.423	4.467	8.039	7.14	6.434	4.241	5.423	5.423	7.14	8.039	7.14	7.14	7.14	4.969	4.577	5.423	6.434	5.423	4.917	5.1	5.423	7.14	4.917	5.1	4.917	6.443	6.434	4.917	4.577	5.1	4.917	4.577	5.1	5.1	6.178	4.917	4.807	4.917	5.1	7.14	7.657	6.926	5.1	5.1	7.14	8.317	8.039	4.969	4.917	5.1	8.039	4.917	4.917	5.1	4.917	7.14	5.1	5.1	5.1	4.241	7.14	5.353	5.1	7.14	3.787	7.14	5.1	5.1	7.785	5.1	5.1	5.1	5.1	5.423	5.1	5.1	5.1	4.917	6.12	5.474	4.577	6.12	7.14	7.736	6.12	5.1	5.1	5.1	7.14	7.14	5.1	6.12	5.1	6.434	7.14	5.1	7.14	7.736	6.12	5.1	5.1	4.577	5.1	6.77	5.1	6.294	5.1	6.604	4.917	7.14	5.1	5.1	6.944	5.1	6.12	7.14	6.12	5.1	5.1	4.581	5.1	5.1	5.1	4.577	4.83	4.917	4.241	5.423	4.241	9.52	7.14	7.14	4.581	5.1	7.14	5.1	5.1	5.1	5.1	7.624	4.917	6.12	4.969	5.261	5.648	5.1	3.787	4.969	4.577	5.1	4.375	7.14	6.12	4.917	5.1	5.1	7.14	5.653	4.917	6.77	6.307	3.787	6.75	6.926	5.648	5.1	5.1	6.518	6.926	8.125	5.1	6.434	4.715	6.084	6.033	4.83	3.787	7.14	7.14	6.434	7.14	4.83	5.1	6.77	8.039	4.917	5.1	5.1	4.581	4.917	5.1	5.261	5.336	6.77	5.1	9.52	10.419	5.423	6.142	4.241	5.423	7.14	5.763	5.982	8.039	6.77	5.1	6.033	7.14	7.14	5.1	5.261	7.14	4.581	9.52	5.1	5.423	8.166	4.577	7.14	5.1	5.1	5.649	3.787	7.14	5.759	7.14	5.423	5.1	6.926	6.443	3.447	6.926	7.14	5.1	8.039	5.261	7.14	7.14	7.14	5.579	5.763	5.423	4.241	7.14	8.039	5.1	6.214	5.763	5.1	3.787	5.423	6.926	4.467	5.1	5.763	5.1	7.14	7.14	7.14	5.1	6.178	8.039	7.14	4.917	6.214	4.577	7.14	7.191	4.577	5.423	5.1	8.039	5.423	8.039	6.434	8.039	5.423	4.577	7.736	7.14	3.787	5.423	8.039	4.917	6.434	5.1	5.1	5.1	5.1	4.917	6.604	5.1	5.1	5.1	4.917	6.171	4.917	7.14	4.241	5.1	4.917	5.601	7.785	6.178	4.917	5.1	5.1	6.178	4.917	6.373	4.577	4.241	5.1	7.14	5.1	4.577	4.917	4.241	5.423	7.14
record-156804	2.04	1.905	1.896	2.042	2.5	1.632	0	2.042	2.127	1.77	1.739	2.228	1.896	1.05	1.483	2.334	2.762	1.698	2.767	1.713	2.062	1.905	1.548	1.79	1.216	1.489	1.632	1.73	1.317	1.725	1.713	2.434	2.04	1.615	2.04	1.414	1.79	2.5	1.881	2.042	1.82	2.5	2.228	1.79	1.548	1.382	2.04	2.5	1.489	1.44	1.497	1.489	1.216	2.5	1.79	1.34	0.976	2.042	1.497	1.77	2.04	2.228	2.04	1.431	1.79	1.77	2.312	1.79	2.042	2.762	1.225	1.663	1.927	2.233	2.762	1.77	2.762	2.04	2.04	1.707	2.042	2.564	1.896	1.497	1.624	1.73	2.042	1.497	2.062	2.233	2.5	2.04	2.767	2.04	2.061	2.092	1.75	1.82	2.772	1.607	1.489	2.417	2.042	0.944	1.461	1.888	1.497	1.624	2.04	1.216	1.82	0.944	1.11	2.092	2.092	2.062	1.82	1.548	1.11	1.275	1.955	1.11	1.876	1.888	2.5	1.489	1.532	1.888	1.216	2.04	1.05	2.042	1.82	1.548	2.062	1.331	2.5	2.04	1.77	2.334	1.216	1.035	1.654	1.955	1.284	1.548	2.062	1.73	1.888	1.615	1.927	1.275	1.905	1.225	1.216	1.589	1.632	1.216	1.45	1.431	1.82	1.888	1.82	1.548	1.556	1.11	1.382	1.967	1.927	1.927	1.489	1.997	1.068	1.927	1.548	2.5	0.952	1.382	2.092	2.092	1.905	0.944	1.548	2.04	1.761	2.04	1.654	1.624	2.04	2.169	2.334	1.548	1.79	1.82	2.722	2.334	2.72	1.73	2.117	1.967	2.04	2.092	2.04	1.489	2.127	2.228	1.73	2.092	2.169	1.458	1.967	2.334	1.645	1.624	2.157	1.82	0.861	1.77	2.061	2.04	1.497	1.382	2.767	1.497	2.04	1.77	2.228	1.77	1.77	2.5	2.169	1.624	2.04	2.334	1.624	1.994	1.542	2.092	2.042	2.233	1.82	1.497	1.73	0.778	1.77	2.587	2.587	2.228	2.042	2.062	2.04	2.767	2.228	1.82	2.169	1.77	1.624	2.04	1.927	1.772	2.5	2.228	1.814	2.04	1.497	1.275	1.994	2.228	1.624	1.954	1.79	2.04	2.767	1.77	2.04	2.471	1.79	2.04	2.228	1.489	1.896	2.5	2.5	0.944	0.802	2.772	2.04	2.5	2.767	1.79	2.04	2.767	2.04	1.881	2.04	2.5	2.04	1.79	1.77	1.497	1.888	1.955	1.624	1.11	1.896	1.624	1.713	1.582	1.77	1.77	2.062	2.062	1.712	2.092	1.814	1.814	2.762	2.5	1.97	1.05	2.5	1.624	2.04	2.772	2.04	2.5	1.954	2.772	2.04	1.668	1.713	2.365	1.55	1.497	2.767	2.767	2.092	2.5	1.739	2.314	2.762	1.82	1.955	2.033	2.04	1.458	1.955	2.767	2.04	2.04	2.762	2.228	2.04	2.04	1.225	2.314	1.497	1.216	2.767	1.216	1.431	1.82	2.762	2.228	1.888	2.471	2.5	2.177	2.16	2.5	1.624	2.04	1.541	1.548	1.77	1.45	2.092	2.767	1.898	1.39	1.11	1.497	1.654	2.767	1.77	2.04	2.5	1.722	1.615	2.5	2.5	2.062	2.233	2.306	2.092	2.092	1.497	1.39	2.228	2.092	2.127	2.767	1.82	2.04	1.82	2.228	1.77	2.177	2.233	2.092	1.367	1.739	1.548	2.228	2.157	2.092	2.092	2.092	1.888	1.548	2.5	2.228	1.82	1.489	2.314	1.497	1.781	2.092	1.905	1.82	2.062	1.82	1.888	1.82	1.548	1.82	2.042	1.82	1.275	1.225	1.423	2.228	1.888	1.548	2.092	1.82	2.228	1.955	1.597	2.228	2.228	2.04	1.624	1.615	1.955	2.233	1.763	1.73	1.905	2.564	1.497	1.927	1.79	1.489	1.225	1.89	1.79	1.548	1.225	0.944	1.624	2.634	2.169	1.955	1.632	1.323	1.548	1.489
record-156996	7.14	7.48	7.48	7.48	7.48	7.04	7.48	0	7.48	6.8	7.04	7.48	7.48	7.48	7.04	7.48	7.48	7.48	7.48	7.48	7.48	7.48	7.48	7.04	7.48	7.48	7.04	7.48	7.48	7.48	7.04	7.48	7.04	12.14	7.14	11.9	7.04	7.48	7.48	6.8	7.48	7.48	7.48	7.04	7.48	7.04	6.8	7.48	7.48	7.04	11.9	7.48	7.48	7.48	7.04	6.8	11.9	7.14	6.8	6.8	7.48	7.48	7.04	7.04	7.04	11.9	7.48	7.04	11.9	7.48	7.48	7.14	7.48	7.48	7.48	11.9	7.48	7.48	7.48	7.04	11.9	7.48	7.48	11.9	7.04	7.48	11.9	7.04	7.48	7.48	7.48	7.48	7.48	7.14	7.48	7.48	7.04	7.48	7.48	7.48	7.48	7.48	11.9	7.314	7.48	7.48	7.04	7.04	7.48	7.48	7.48	7.314	7.04	7.48	7.48	7.48	7.48	7.48	7.04	7.04	7.48	7.04	7.48	7.48	7.48	7.48	7.48	7.48	7.48	7.14	7.48	7.48	7.48	7.04	7.48	7.48	7.48	7.48	7.48	7.48	7.48	7.04	7.48	7.04	7.04	7.48	7.48	7.48	7.48	7.48	7.48	7.314	7.48	7.48	7.48	7.48	7.04	7.48	7.314	7.48	7.48	7.48	7.48	7.48	7.48	7.314	7.48	7.48	7.48	7.48	7.48	7.48	7.48	7.48	7.48	7.48	7.314	7.48	7.48	7.48	7.48	7.314	7.48	7.48	7.48	7.04	7.48	7.04	7.04	7.48	7.48	7.48	7.04	7.48	7.48	7.48	7.48	7.48	7.48	7.48	6.8	7.48	7.14	7.48	7.48	7.48	7.48	7.48	7.48	7.04	7.48	7.48	11.9	7.04	7.48	7.48	7.48	7.14	7.48	7.04	7.04	7.04	7.48	6.8	7.48	6.8	7.48	6.8	6.8	7.48	7.48	7.04	6.8	7.48	7.04	11.9	7.04	7.48	11.9	7.48	7.48	11.9	7.48	7.314	6.8	7.14	7.14	7.48	11.9	7.48	7.48	7.48	7.48	7.48	7.48	11.9	7.04	6.8	7.48	7.314	7.48	7.48	7.48	6.8	6.8	7.314	7.14	7.48	7.04	7.14	7.04	7.14	7.48	11.9	6.8	7.48	7.48	6.8	7.48	7.48	7.48	7.48	7.48	7.48	7.314	7.48	7.14	7.48	7.48	7.48	6.8	7.48	6.8	7.48	6.8	7.48	7.14	7.04	11.9	7.04	7.48	7.04	7.04	7.04	7.48	7.04	7.48	7.04	7.14	11.9	7.48	7.48	7.48	7.48	7.04	7.04	7.48	7.48	7.48	7.48	7.48	7.04	7.48	7.48	7.48	7.48	7.14	7.48	7.48	7.48	7.48	7.48	7.48	7.04	7.48	7.48	7.48	7.48	7.04	6.8	7.48	7.48	7.04	7.48	6.8	7.48	7.04	7.48	7.48	7.48	7.48	7.48	7.14	7.14	6.8	6.8	7.48	7.48	7.48	7.48	7.04	7.48	7.48	7.48	7.48	7.48	7.48	7.48	7.48	7.48	7.48	7.14	7.04	7.48	7.14	7.48	7.48	7.48	6.8	7.48	7.04	7.314	7.48	7.48	7.48	6.8	7.48	7.48	7.04	7.48	7.48	7.48	7.48	7.48	7.48	7.48	7.14	7.48	7.48	7.48	7.48	7.48	7.48	6.8	7.48	7.48	6.8	7.48	7.48	7.48	7.314	7.04	7.48	7.48	11.9	7.48	7.48	7.48	7.48	7.48	7.48	7.48	7.48	7.48	7.48	7.14	7.314	7.48	7.48	7.48	7.48	7.48	7.48	7.48	7.48	7.48	7.48	7.48	7.04	7.48	7.48	7.48	7.48	7.48	7.48	7.48	7.48	7.04	7.04	7.48	7.48	6.8	7.04	12.14	7.04	7.48	7.04	7.48	7.04	7.48	7.48	7.48	7.04	7.48	6.8	7.48	7.04	7.48	7.48	7.48	7.04	7.48	7.48	7.04	7.04	7.48	7.48	7.48
record-415657	28.883	15.3	16.489	15.3	18.017	14.217	18.017	15.3	0	19.389	16.668	18.017	16.489	15.724	16.641	17.253	18.017	16.554	18.017	18.017	17.253	15.3	18.017	16.668	16.489	16.489	14.217	15.724	16.489	12.087	14.702	18.017	32.464	29.85	20.859	19.756	12.409	17.253	15.45	14.702	18.017	18.017	18.017	13.173	18.017	12.409	33.689	17.253	16.489	14.217	12.92	16.489	16.489	18.017	16.668	12.409	16.627	25.673	12.409	13.173	21.417	18.017	17.835	15.904	13.173	12.92	16.214	12.409	30.405	18.017	16.627	17.526	17.253	16.489	18.017	24.16	18.017	26.43	21.417	13.937	30.648	16.979	16.489	24.16	15.904	15.724	30.405	19.586	17.253	16.489	18.017	22.014	18.017	17.526	15.45	18.017	18.637	18.017	18.017	18.734	16.489	18.017	30.405	15.45	12.409	21.417	17.873	15.904	22.014	16.489	18.017	16.787	13.173	18.017	18.017	17.253	18.017	18.017	13.173	13.937	17.319	13.173	17.253	22.014	18.017	16.489	20.179	22.014	16.489	22.266	15.724	15.3	18.017	13.937	17.253	17.253	18.017	25.849	15.3	17.253	16.489	19.077	17.253	20.84	18.65	18.017	17.253	15.724	25.849	19.213	17.253	18.316	15.3	15.3	16.489	17.253	14.217	16.489	16.492	15.3	18.017	21.417	18.017	18.017	18.017	17.552	17.253	15.724	17.253	17.253	16.489	16.489	15.3	17.253	18.017	17.253	15.599	17.253	18.017	18.017	15.3	16.787	18.017	25.085	16.489	17.256	17.253	15.904	16.492	16.489	17.253	18.017	16.668	18.017	15.3	17.253	15.3	15.724	16.489	15.724	18.67	18.017	21.502	16.489	18.017	18.017	15.724	18.017	16.489	15.139	15.724	17.253	25.673	12.409	13.173	26.448	16.61	30.405	15.45	14.702	19.586	16.668	18.017	12.409	14.702	12.409	18.017	13.173	12.409	17.253	16.489	12.409	13.173	17.253	15.904	25.655	19.926	18.017	30.405	16.489	13.937	12.92	15.724	16.023	13.173	30.648	30.648	14.702	30.648	17.253	25.085	18.017	18.017	18.017	16.489	30.405	12.409	13.173	14.963	15.466	17.253	18.017	23.254	30.405	12.409	18.316	20.094	18.017	12.409	24.844	13.173	28.883	18.017	30.405	13.173	17.253	16.554	34.039	18.017	12.409	16.489	16.979	18.017	16.61	19.003	18.017	28.883	17.253	18.017	16.554	24.16	18.017	13.173	15.45	29.628	18.017	17.97	16.668	24.5	16.668	19.499	18.734	15.877	13.173	16.489	15.904	18.017	14.217	22.714	24.5	17.253	17.253	12.409	18.017	19.499	15.466	18.017	16.979	19.323	15.724	18.017	15.904	13.937	18.017	22.014	18.017	24.844	18.017	25.849	15.724	25.849	18.017	14.601	19.586	18.017	18.017	18.017	17.253	13.173	15.466	18.017	18.017	14.702	16.489	28.863	15.026	14.702	18.017	19.499	18.734	18.017	18.017	22.266	20.094	16.797	13.173	15.3	16.489	18.017	17.355	12.409	16.979	18.017	18.017	22.014	17.253	17.253	15.3	19.499	17.253	15.79	21.502	17.873	18.017	24.844	19.414	18.017	18.017	19.297	18.598	13.173	19.756	16.554	18.017	18.782	21.502	18.017	21.25	17.256	18.017	17.253	17.253	16.489	16.489	18.017	18.017	19.756	18.598	18.017	18.017	18.017	18.017	18.017	21.502	18.017	18.017	13.937	17.253	16.489	18.017	20.606	16.668	18.017	18.017	19.546	18.017	18.017	18.017	25.849	18.017	17.253	18.017	18.017	16.489	17.253	19.756	17.256	18.017	15.3	18.017	17.253	18.017	25.849	18.017	18.017	18.017	15.3	18.017	14.702	17.253	16.489	18.017	25.849	18.017	18.017	18.017	18.017	14.702	16.668	18.017	18.017	13.173	15.904	21.286	14.702	16.489	14.702	15.724	12.409	16.979	13.173	17.253	16.668	12.409	13.173	15.3	16.668	18.017	15.3	16.61	15.904	15.3	16.489	15.727	14.217	15.724	18.017	16.489
record-415691	8.893	8.16	10.039	5.655	8.84	6.12	8.84	8.16	8.84	0	10.243	8.84	10.039	9.484	9.199	8.84	8.84	6.979	8.84	8.84	10.593	8.16	8.84	10.039	8.339	8.84	8.16	9.484	7.271	8.043	9.563	8.84	12.508	8.84	8.869	8.339	7.899	8.553	7.7	10.593	8.84	8.84	8.84	8.937	8.84	6.879	12.508	8.84	8.543	8.16	7.784	6.979	8.339	8.84	10.039	7.899	7.023	8.84	6.879	9.484	8.84	8.84	8.967	9.484	9.484	8.339	8.255	6.879	7.999	8.84	7.777	7.661	8.84	8.553	8.84	7.444	8.84	8.84	8.84	10.039	8.84	8.809	10.039	7.444	9.484	9.484	7.999	11.769	10.593	7.999	8.84	8.84	8.84	7.661	7.7	8.84	8.433	8.84	8.84	7.999	8.84	8.84	12.717	8.644	6.539	8.84	7.784	9.484	8.84	8.339	8.84	7.784	9.484	8.84	8.84	10.593	8.84	8.84	9.484	10.039	8.84	9.484	8.84	8.84	8.84	8.84	8.84	8.84	8.339	9.788	6.424	6.12	8.84	10.039	10.593	8.84	8.84	8.84	6.12	8.84	6.979	7.784	8.84	8.84	8.84	8.84	10.593	9.484	8.84	8.84	8.84	8.84	8.16	6.12	8.84	8.84	8.16	8.84	9.919	6.8	8.84	8.84	8.84	8.84	8.84	8.339	8.84	10.593	8.84	8.84	10.039	9.484	7.569	8.84	8.84	8.84	9.619	8.84	8.84	8.84	8.16	7.784	8.84	10.593	10.039	10.593	8.84	9.484	10.039	10.593	8.84	8.84	11.769	8.84	8.16	8.553	7.48	9.484	8.553	10.593	8.967	8.84	7.873	8.84	8.84	8.84	9.484	8.84	10.593	8.929	7.444	8.84	7.577	6.879	7.433	7.999	10.039	8.339	7.7	9.563	11.769	10.039	8.84	6.879	10.767	6.879	8.84	9.484	6.879	8.84	10.593	7.703	7.433	8.84	9.484	8.553	10.093	8.84	7.999	8.84	7.988	7.577	9.484	7.229	7.433	8.84	8.84	11.705	10.593	7.951	14.013	8.84	8.84	8.84	10.593	10.039	7.899	9.484	11	8.84	8.553	8.84	8.84	7.999	6.879	8.84	8.315	8.84	7.899	6.424	9.484	9.913	8.84	7.999	8.977	8.84	6.979	12.779	8.84	6.879	10.039	8.809	8.84	9.484	7.784	8.84	8.553	8.84	8.84	6.979	7.444	8.84	7.433	7.7	8.84	8.84	7.444	10.039	7.444	7.784	8.84	7.999	11.911	9.484	10.039	9.484	8.84	6.555	8.553	7.444	10.593	10.593	6.879	8.84	8.84	8.84	8.84	8.809	8.433	7.444	8.84	9.484	7.988	8.84	8.84	8.84	6.424	8.84	8.84	6.424	8.84	8.84	5.655	10.159	8.84	8.84	8.84	8.84	9.484	8.84	8.84	8.84	10.593	10.593	8.553	5.869	10.593	8.84	8.84	6.979	8.84	8.84	8.84	8.315	9.389	8.937	8.16	8.84	8.84	5.869	6.539	8.809	8.84	8.84	8.84	8.84	8.84	6.12	8.84	8.84	6.424	8.84	8.595	8.84	6.424	8.84	8.84	8.84	8.124	9.484	9.484	10.087	6.979	8.84	8.339	9.233	8.84	8.84	10.713	8.84	8.84	10.593	8.84	8.84	8.84	8.84	8.84	6.424	8.84	8.84	8.84	8.84	8.84	8.84	8.84	8.84	10.039	8.84	8.84	8.84	8.84	11.109	8.84	8.84	8.84	8.84	8.84	8.84	8.84	8.84	8.84	8.84	8.84	8.84	8.84	7.444	10.593	8.84	6.12	8.84	10.593	8.84	8.84	8.84	8.84	8.84	8.16	8.84	10.713	8.84	8.84	8.84	8.84	8.84	8.84	8.84	8.84	10.593	10.039	8.84	8.84	9.484	9.484	9.413	10.593	8.84	10.593	9.484	7.703	8.809	9.484	8.553	10.039	7.899	7.023	11.184	10.039	8.84	6.795	7.999	9.484	7.784	7.999	11.555	8.16	8.339	8.84	8.84
record-415817	6.8	7.82	8.782	7.82	10.084	8.071	10.084	7.82	10.084	9.375	0	10.084	8.782	8.131	9.684	9.433	10.084	8.732	10.084	10.084	9.433	7.82	10.362	9.684	8.782	8.782	8.071	8.131	9.059	7.422	8.862	10.084	10.986	6.8	6.8	8.236	6.909	9.433	8.761	9.375	10.084	10.084	10.084	7.9	10.084	7.249	10.026	9.433	8.782	8.071	6.8	8.782	8.782	10.084	9.684	6.909	7.417	9.873	7.249	8.073	10.735	10.084	9.202	9.033	8.073	6.8	9.412	7.249	6.8	10.084	7.417	9.055	9.433	8.782	10.084	6.8	10.084	11.386	10.735	8.724	6.8	10.063	8.782	6.8	9.033	8.131	6.8	8.236	9.433	8.782	10.084	10.026	10.084	12.835	8.761	10.084	10.335	10.084	10.084	10.685	8.782	10.084	6.8	8.549	7.422	11.637	9.684	9.033	10.986	8.782	10.084	8.761	8.073	10.084	10.084	9.433	10.084	10.362	8.073	8.724	9.383	8.073	9.433	13.358	10.084	8.782	9.873	6.8	8.782	6.8	8.408	7.82	10.084	8.724	9.433	9.433	10.084	10.026	7.82	9.433	9.059	8.236	9.433	9.873	8.236	10.084	9.433	8.131	10.026	10.026	9.433	10.063	7.82	8.097	9.059	9.433	8.071	9.059	8.724	7.82	10.084	6.8	10.084	10.362	10.362	9.412	9.433	8.131	9.433	9.433	8.782	8.782	8.097	9.433	10.362	9.433	7.799	9.71	10.084	10.084	7.82	8.761	10.084	9.375	8.782	9.375	9.433	9.033	8.724	8.782	9.433	10.362	9.684	10.084	7.82	9.433	7.82	8.131	8.782	8.131	9.375	10.084	14.853	8.782	10.084	10.084	8.131	10.084	8.782	8.382	8.131	9.433	9.873	7.249	7.9	12.118	8.081	9.055	8.761	8.862	8.236	9.684	10.084	7.249	9.375	7.249	10.084	8.073	7.249	9.433	8.782	7.249	7.9	9.433	9.033	6.8	10.986	10.084	6.8	8.782	8.551	6.8	8.131	8.11	7.9	11.511	11.511	10.084	6.8	9.433	9.375	10.084	10.084	10.084	8.782	6.8	6.909	8.073	7.422	10.026	9.433	10.084	11.751	9.375	7.249	10.063	10.692	10.084	6.909	10.816	8.073	6.8	10.084	6.8	8.073	9.433	8.732	8.724	10.084	7.249	8.782	10.063	10.084	8.081	9.287	10.084	6.8	9.433	10.084	8.732	8.724	10.084	7.9	8.761	10.677	10.084	14.853	9.684	6.8	9.684	11.423	10.335	9.033	8.073	8.782	9.033	10.084	8.071	9.055	6.8	9.433	9.433	7.249	10.084	13.558	10.986	10.084	10.063	9.375	8.131	10.084	9.033	8.551	10.084	10.026	10.084	10.816	10.084	10.026	8.131	11.013	10.084	7.119	8.236	10.084	10.084	10.084	9.433	8.073	10.026	10.084	10.084	10.335	8.782	10.026	7.43	10.335	10.084	10.735	9.375	10.084	10.084	6.8	6.8	7.417	7.9	7.82	9.059	10.084	8.962	7.422	10.063	10.084	10.084	13.358	9.433	9.433	7.82	11.423	9.433	8.081	14.853	9.684	10.362	11.423	9.055	10.084	10.084	8.724	10.508	8.073	8.236	8.732	10.084	11.013	10.026	10.084	12.79	10.253	10.084	9.433	9.433	8.782	8.782	10.084	10.084	8.236	10.732	10.084	10.084	10.084	10.084	10.084	10.026	10.084	10.084	8.724	9.433	8.782	10.084	9.873	9.684	10.084	10.084	10.692	10.084	10.084	10.084	12.461	10.362	9.433	10.084	10.084	8.782	9.433	8.236	9.375	10.084	7.82	10.084	9.433	10.084	10.026	10.084	10.362	10.084	7.82	10.084	10.391	9.71	8.782	10.084	10.026	10.084	10.084	10.084	10.084	10.335	9.684	10.084	10.084	8.073	9.033	6.8	10.335	8.782	10.335	8.131	7.249	10.063	8.063	9.433	9.684	6.909	8.073	7.959	9.684	10.084	7.82	8.081	9.033	7.82	8.782	8.073	8.071	8.131	10.362	8.782
record-415894	2.533	3.573	2.847	1.96	3.647	1.96	3.047	4	2.793	2.2	1.753	0	3.273	2.66	1.327	2.607	1.94	1.327	4.487	1.94	2.473	3.24	1.94	3.287	2.673	3.353	3.147	3.42	2.167	3.393	3.4	2.367	2.34	2.28	1.853	2.507	3.267	1.753	1.14	3.4	1.94	4.407	3.98	2.82	1.94	2.687	2.62	2.607	2.927	2.64	2.467	1.567	2.927	4.407	2.587	2.64	2.08	3.4	2.467	2.467	3.4	1.94	2.313	2.287	1.327	2.893	1.327	2.687	2.387	1.94	1.513	1.293	2.607	1.993	1.94	1.96	1.94	3.4	3.4	1.513	3.24	1.513	3.607	1.96	1.567	3.087	2.387	1.753	2.607	1.567	1.94	2.28	2.793	1.293	1.14	1.94	1.513	2.793	3.22	1.78	2.42	1.94	2.247	1.14	1.14	3.4	1.327	2.287	2.28	2.847	2.367	2.5	2.687	2.793	2.367	2.607	1.94	2.367	2.687	2.873	1.513	2.007	3.713	2.28	2.367	3.273	3.4	2.28	2.42	2.62	1.38	3.493	2.793	2.62	3.793	2.86	2.367	3.4	2.813	3.033	1.567	2.64	1.753	3.4	2.64	2.367	3.793	3.42	3.4	3.4	2.18	2.873	3.493	1.96	2.247	2.86	3.067	2.247	3.4	2.64	3.047	3.4	3.727	2.62	2.62	2.687	2.86	3.46	3.287	3.287	2.673	3.82	2.213	3.967	2.62	4.26	2.467	2.433	4.153	4.153	3.573	2.5	3.3	3.4	3.607	3.4	3.54	3.18	3.4	3.86	4.22	1.94	1.753	2.367	3.24	1.753	2.387	3.087	1.993	3.087	2.533	2.793	2.193	1.993	3.473	1.94	3.42	2.367	2.42	2.993	1.38	2.607	2.847	2.287	2.367	2.347	1.82	2.347	1.14	3.4	1.753	2.473	2.367	2.467	3.4	2.467	1.94	2.467	2.467	3.46	3.86	3.18	2.893	3.033	2.42	2.093	1.853	2.367	2.387	2.42	2.367	2.847	2.233	2.313	2.893	3.24	3.24	2.66	2.86	1.753	2.093	2.793	3.727	2.793	3.273	2.247	2.847	2.387	1.72	3.4	1.753	2.367	2.28	2.387	2.373	1.94	1.667	2.793	2.893	1.96	2.687	2.433	2.793	2.387	2.247	2.607	1.327	1.907	3.98	1.993	3.607	1.513	2.367	1.82	1.993	4.487	2.813	2.607	2.793	1.327	1.96	2.793	2.893	1.14	2.96	1.94	1.48	2.387	1.96	2.433	1.853	1.667	1.14	2.007	2.847	3.18	1.94	1.533	2.813	1.96	2.18	2.18	1.327	2.793	1.853	3.4	1.94	1.513	1.853	1.38	1.94	2.42	3.26	3.647	2.28	2.367	1.96	3.22	3.4	1.38	3.4	2.793	1.107	2.007	2.793	2.367	2.793	3.887	1.753	3.4	1.94	2.793	2.367	3.353	2.773	0.953	2.367	3.647	1.853	1.667	1.94	3.647	3.16	1.667	2.213	3.4	1.533	2.247	2.793	1.353	2.287	1.513	1.94	1.94	2.28	2.607	2.607	3.667	1.853	3.033	1.14	2.533	1.327	1.94	1.96	3.067	2.367	3.647	1.96	1.94	2.007	2.467	1.327	2.793	3.4	2.433	2.367	2.093	3.4	2.367	2.607	2.18	2.42	2.847	1.94	2.793	2.64	1.72	1.94	3.9	3.473	2.793	2.793	2.773	1.94	1.94	2.893	2.18	3.7	2.367	3.4	1.753	1.94	3.98	3.4	2.793	2.367	2.793	3.4	2.62	2.607	3.647	1.94	2.673	4.14	2.64	3.4	3.22	3.573	3.047	3.713	3.047	3.4	3.047	2.62	3.727	3.493	3.473	2.193	2.433	2.673	3.98	3.4	3.3	4.153	3.727	3.98	3.553	2.593	2.793	2.793	2.467	3.18	1.853	3.553	2.42	2.367	3.087	3.353	1.513	1.753	1.753	3.367	2.92	2.42	2.813	3.367	1.94	1.96	1.567	2.42	1.96	1.567	1.907	2.893	2.66	2.62	3.353
record-415908	8.239	6.701	7.281	6.47	9.111	6.441	9.111	6.46	9.111	6.628	6.114	6.899	0	6.668	5.115	7.501	8.078	5.1	9.111	8.078	6.118	6.701	8.078	6.631	7.422	7.301	5.59	6.668	5.435	7.618	7.742	9.261	7.636	10.103	8.919	5.968	6.171	6.468	4.824	8.574	6.899	9.111	9.111	6.392	8.078	5.365	8.63	7.501	7.301	5.59	4.739	6.239	7.422	9.111	6.631	6.171	4.629	5.78	5.365	6.696	9.858	6.899	7.301	5.248	6.696	5.78	5.284	5.365	7.085	8.078	5.56	5.398	7.501	7.301	8.078	5.746	8.078	10.946	8.411	5.391	9.452	5.745	7.281	5.746	6.103	6.668	5.738	6.27	7.742	6.008	8.078	7.841	9.111	5.398	4.824	8.078	5.391	9.111	9.111	7.794	7.301	8.078	7.085	4.824	5.067	6.312	4.931	4.908	7.841	7.422	9.261	6.445	6.209	9.111	9.111	7.742	6.899	9.261	6.209	6.977	5.56	6.209	7.501	7.841	9.261	7.301	6.941	7.841	7.422	7.841	5.478	6.46	9.111	6.977	7.742	7.621	9.261	8.202	6.46	7.501	6.239	7.396	6.439	5.78	7.552	9.261	7.742	6.668	8.202	8.202	7.511	8.254	6.701	6.47	6.948	7.501	5.59	6.948	7.495	6.46	9.111	5.78	9.111	8.758	8.758	6.614	7.621	6.668	7.501	7.501	7.561	7.301	6.107	7.501	8.758	7.501	5.573	7.148	9.111	9.111	6.701	6.445	9.231	7.742	7.281	8.111	7.501	6.171	7.651	7.301	7.501	7.553	6.299	9.111	6.46	6.468	6.46	6.668	7.312	6.668	6.281	9.111	7.271	7.312	9.111	6.899	6.668	9.111	7.301	5.71	5.508	7.501	5.78	5.252	5.877	7.425	5.504	6.883	4.824	7.742	6.299	5.708	9.111	5.365	8.159	5.365	8.078	6.696	5.365	7.501	7.301	6.951	5.877	7.501	6.171	8.764	7.068	9.111	7.085	7.301	6.172	5.78	6.668	5.983	5.877	9.763	9.763	6.918	9.607	6.468	8.481	9.111	9.111	9.111	7.301	7.085	6.271	6.696	6.369	8.411	6.468	9.111	10.161	7.085	5.365	8.078	7.58	9.231	6.271	5.901	6.696	8.424	9.111	5.738	6.793	7.501	5.1	7.37	9.111	5.252	7.281	5.745	9.111	5.504	6.262	9.111	8.579	7.501	9.111	5.1	5.746	9.111	5.877	4.824	8.416	8.078	6.61	7.482	4.399	6.966	7.271	6.608	4.655	6.696	7.281	6.171	8.078	5.229	4.399	4.399	7.742	7.752	5.365	9.111	6.948	6.629	8.078	5.745	6.071	5.508	8.078	6.171	6.338	9.111	7.841	9.261	5.901	9.111	8.202	5.478	7.9	9.111	4.059	5.795	9.111	9.111	9.111	7.501	6.696	8.355	8.078	9.111	7.091	7.301	7.077	4.14	7.091	9.111	7.985	6.802	8.078	9.111	7.841	7.58	4.399	6.812	5.427	6.948	9.111	4.222	4.912	5.745	8.078	6.899	7.841	7.501	7.501	6.46	7.271	7.501	4.64	8.239	4.931	8.078	5.561	9.544	9.261	9.111	5.539	7.095	6.209	4.399	5.1	9.111	9.505	7.271	9.261	7.271	7.091	9.261	7.501	7.742	7.301	7.301	6.899	9.111	5.738	6.397	6.899	9.111	9.111	9.111	9.111	7.077	6.899	6.899	6.977	7.511	7.301	9.261	7.061	6.27	6.899	9.111	8.416	9.111	9.261	9.111	8.202	8.758	7.501	9.111	6.899	7.301	7.501	6.581	8.111	9.111	6.701	9.111	7.742	9.111	8.202	9.111	8.758	9.111	6.46	9.111	6.256	7.148	7.301	9.111	8.202	9.231	9.111	9.111	9.111	7.091	6.458	9.111	9.111	6.696	6.171	8.919	7.091	7.301	7.091	6.668	6.635	5.745	6.821	6.468	6.631	6.271	6.696	6	6.631	8.078	6.579	6.008	6.171	6.46	6.008	6.829	5.59	6.668	8.758	7.301
record-415983	15.962	17.686	20.073	13.6	18.828	12.286	18.828	13.6	20.441	15.994	15.834	19.25	20.073	0	17.839	25.797	19.25	16.939	18.828	20.441	19.078	17.686	19.25	15.834	20.413	15.987	12.286	15.006	15.809	11.258	15.997	18.828	17.361	17.357	15.962	15.994	11.907	17.887	15.235	15.997	18.828	18.828	20.441	13.27	21.461	11.907	17.361	17.35	15.987	12.286	14.63	15.987	20.413	18.828	15.834	11.907	13.267	11.22	11.907	13.27	20.815	18.828	15.688	14.471	13.27	15.994	16.599	11.907	22.459	19.25	18.937	12.097	17.35	15.987	19.25	13.385	19.25	23.168	21.805	14.634	17.357	17.962	20.073	14.63	14.471	15.006	22.459	15.834	19.078	16.524	19.25	17.361	18.828	12.097	15.235	19.25	15.994	18.828	18.828	14.674	15.987	19.25	22.459	15.31	11.907	18.721	14.63	14.471	17.361	20.413	18.828	15.31	13.27	18.828	18.828	19.078	18.828	18.828	13.27	14.634	19.25	13.27	17.35	11.22	18.828	15.987	18.721	18.721	20.413	11.22	15.006	13.6	18.828	14.634	19.078	19.917	18.828	17.361	13.6	26.106	15.987	14.63	26.879	19.843	17.361	21.461	19.078	15.006	17.361	17.357	17.35	18.037	17.686	13.6	15.987	26.879	12.286	15.987	14.634	13.6	18.828	18.721	18.828	18.828	18.828	16.673	20.098	15.006	17.35	17.35	19.702	16.476	18.026	17.35	18.828	17.35	12.923	26.106	18.828	18.828	17.686	15.31	21.461	15.997	20.073	15.997	26.879	14.471	14.634	15.987	26.168	20.441	15.834	20.441	13.6	17.887	13.6	15.006	15.987	15.006	15.997	18.828	11.22	15.987	20.441	18.828	15.006	18.828	15.987	13.606	15.006	25.797	14.63	11.907	13.27	21.962	20.413	14.674	15.235	15.997	15.834	15.834	18.828	11.907	15.997	11.907	20.441	13.27	11.907	17.35	15.987	11.598	13.27	26.106	14.471	23.822	17.357	20.441	22.459	15.987	14.634	14.63	15.006	13.946	13.27	17.25	17.25	15.997	17.357	19.078	15.997	18.828	20.441	18.828	15.987	15.994	11.907	13.27	11.907	17.361	17.887	20.441	21.805	15.997	11.907	18.037	14.674	20.441	11.907	11.22	13.27	15.962	18.828	15.994	13.27	17.35	16.939	14.634	20.441	11.907	20.073	17.962	18.828	16.66	15.31	18.828	15.962	17.35	18.828	16.939	19.396	18.828	13.27	15.235	18.724	19.25	13.385	15.834	13.385	14.63	18.721	15.997	14.471	13.27	20.073	14.471	19.25	12.286	15.962	13.385	19.078	19.078	11.907	18.828	17.361	17.361	19.25	17.962	15.997	15.006	19.25	14.471	14.634	18.828	17.361	18.828	11.22	18.828	17.361	15.006	17.361	18.828	17.686	15.834	18.828	18.828	18.828	17.35	13.27	17.361	19.25	18.828	15.997	15.987	17.361	15.006	15.997	18.828	21.805	15.997	19.25	20.441	11.22	14.674	15.997	13.27	14.137	15.987	18.828	20.413	11.907	17.962	19.25	18.828	11.22	17.35	17.35	13.6	20.084	17.35	15.575	11.22	15.834	19.25	11.22	22.802	18.828	18.828	14.634	13.27	13.27	15.997	16.939	18.828	15.994	17.361	18.828	17.357	15.997	18.828	17.35	19.078	15.987	15.987	18.828	18.828	11.22	18.828	18.828	18.828	20.441	18.828	18.828	17.361	18.828	18.828	14.634	26.168	15.987	18.828	17.357	15.834	21.461	20.441	18.721	18.828	18.828	18.828	17.361	18.828	17.35	20.441	18.828	15.987	17.35	11.22	15.997	18.828	17.686	18.828	19.078	18.828	17.361	18.828	18.828	18.828	13.6	18.828	15.997	20.098	15.987	20.441	17.361	21.461	18.828	18.828	20.441	15.997	15.834	20.441	20.441	13.27	14.471	17.357	15.997	15.987	15.997	15.006	11.598	17.962	13.27	17.887	15.834	11.907	13.267	17.686	15.834	21.461	20.064	16.524	14.471	13.6	16.524	13.27	12.286	15.006	18.828	15.987
record-416017	4.42	4.08	6.956	5.44	4.42	4.08	4.42	4.08	4.42	6.548	5.809	4.42	6.956	5.997	0	7.84	4.42	7.84	4.42	4.42	6.593	4.08	4.42	5.809	6.652	6.587	4.127	6.385	5.791	4.881	6.593	4.42	4.42	4.42	4.42	6.023	4.881	7.84	5.476	6.593	4.42	4.42	4.42	5.452	4.42	4.905	4.42	7.84	6.587	4.4	5.136	6.587	6.652	4.42	5.809	4.881	4.565	4.42	4.905	5.452	4.42	4.42	6.801	5.452	5.452	6.023	6.24	4.905	6.176	4.42	4.264	4.448	7.84	6.587	4.42	5.312	4.42	4.42	4.42	6.023	4.42	4.42	6.956	5.136	5.452	6.385	6.176	5.809	6.593	6.587	4.42	4.42	4.42	4.448	5.58	4.42	5.968	4.42	4.42	6.176	6.587	4.42	6.176	4.591	4.881	4.42	5.136	5.239	4.42	6.652	4.42	5.239	5.452	4.42	4.42	6.593	4.42	4.42	5.452	6.023	4.42	5.452	7.84	4.42	4.42	6.587	4.42	4.42	6.652	4.42	5.42	4.127	4.42	6.023	6.593	7.537	4.42	4.42	5.851	7.84	6.587	5.452	7.84	4.42	4.42	4.42	6.593	6.385	4.42	4.42	7.84	4.42	4.08	5.44	6.587	7.84	4.08	6.587	5.865	6.736	4.42	4.42	4.42	4.42	4.42	5.809	7.537	5.42	7.84	7.84	6.956	5.585	5.851	7.84	4.42	7.84	4.08	7.84	4.42	4.42	4.08	5.239	4.42	6.593	6.956	6.32	7.84	5.239	5.749	6.587	7.84	4.42	5.809	4.42	4.4	7.84	5.44	6.385	6.587	5.42	6.801	4.42	4.42	6.587	4.42	4.42	6.385	4.42	6.587	4.668	5.352	7.84	5.452	4.905	5.476	6.176	5.868	6.176	5.58	6.593	5.809	5.577	4.42	4.905	6.32	4.905	4.42	5.452	4.905	7.84	6.587	4.881	5.476	7.84	5.239	4.42	4.42	4.42	6.176	6.587	6.047	5.452	6.385	4.668	5.476	4.42	4.42	6.593	4.42	6.593	6.593	4.42	4.42	4.42	6.587	6.023	4.881	5.452	4.608	4.42	7.84	4.42	4.42	6.593	4.905	4.42	6.176	4.42	4.881	4.42	5.452	4.42	4.42	6.023	5.452	7.84	7.84	6.023	4.42	4.905	6.956	4.42	4.42	5.452	5.239	4.42	4.42	7.84	4.42	7.84	5.312	4.42	5.476	5.476	4.42	4.42	5.312	5.809	5.312	5.136	4.42	6.332	5.452	5.452	6.956	5.239	4.42	4.127	4.42	5.312	6.38	6.593	4.905	4.42	4.42	4.42	4.42	4.42	6.32	5.691	4.42	5.239	6.047	4.42	4.42	4.42	4.42	4.42	4.42	5.42	4.42	4.42	4.4	5.737	4.42	4.42	4.42	7.84	5.452	4.42	4.42	4.42	6.38	6.587	4.42	4.828	6.38	4.42	4.42	6.593	4.42	4.42	4.42	6.176	6.593	5.452	4.08	6.587	4.42	6.208	4.881	4.42	4.42	4.42	4.42	7.84	7.84	4.08	4.42	7.84	6.539	4.42	6.023	4.42	4.42	4.42	4.42	4.42	6.023	5.452	5.452	6.593	7.84	4.42	6.023	4.42	4.42	4.42	6.32	4.42	7.84	6.593	6.587	6.587	4.42	4.42	4.42	4.42	4.42	4.42	4.42	4.42	4.42	4.42	4.42	4.42	6.023	7.84	6.587	4.42	4.42	5.809	4.42	4.42	4.42	4.42	4.42	4.42	4.42	4.42	7.84	4.42	4.42	6.587	7.84	4.42	6.32	4.42	4.08	4.42	6.593	4.42	4.42	4.42	4.42	4.42	4.08	4.42	6.308	7.537	6.587	4.42	4.42	4.42	4.42	4.42	4.42	6.38	5.737	4.42	4.42	5.452	5.239	4.42	6.38	6.587	6.38	6.385	4.881	4.42	5.452	7.84	5.809	4.881	6.912	4.08	5.809	4.42	4.08	5.765	5.239	5.44	6.587	5.179	4.4	5.42	4.42	6.587
record-416095	6.404	7.055	6.49	5.055	8.077	5.086	7.278	7.14	6.247	5.281	4.886	4.229	7.311	6.107	2.838	0	4.229	3.858	8.332	4.229	4.651	6.885	4.229	6.589	6.512	7.438	5.78	7.098	4.268	7.286	6.457	6.247	5.415	5.589	4.581	5.418	6.963	3.846	2.455	9.62	5.249	8.332	8.247	6.541	4.229	5.943	6.989	6.884	5.503	5.952	4.409	4.483	6.523	8.332	5.884	6.14	4.409	6.82	5.12	5.82	6.63	5.249	6.061	4.288	2.838	5.418	2.838	5.943	5.395	4.229	4.241	3.345	5.864	4.472	4.229	4.386	4.229	7.569	4.612	4.241	7.413	3.221	7.941	4.386	3.463	6.928	5.395	4.886	6.853	3.463	4.229	5.378	7.267	3.345	2.455	4.229	4.241	6.247	7.256	4.198	5.481	4.229	5.395	2.455	3.463	5.007	3.858	5.668	4.624	7.278	6.258	5.515	5.918	7.267	5.238	6.884	5.249	6.258	5.918	6.301	4.229	4.898	8.314	6.398	5.238	7.438	5.39	8.745	6.501	6.46	4.101	7.505	7.267	6.289	7.864	6.895	6.258	6.398	6.927	7.736	4.483	6.684	4.866	8.526	7.76	6.258	7.864	7.098	7.418	6.41	5.875	6.281	7.055	5.066	5.503	6.895	5.78	5.503	7.947	6.086	7.278	7.418	8.204	6.269	6.269	5.898	6.895	6.945	7.779	7.779	6.512	7.566	5.078	8.309	6.269	7.949	5.089	5.886	8.692	8.692	7.055	5.515	7.289	10.224	7.481	9.246	7.821	6.206	8.863	7.566	7.949	4.229	3.846	5.238	6.885	3.846	5.055	7.558	4.472	6.928	5.746	7.267	6.825	5.492	8.162	5.249	7.098	5.238	5.481	5.823	3.081	5.864	5.418	4.288	6.445	5.395	4.268	5.395	2.455	4.995	3.846	4.671	5.238	5.12	4.612	5.12	4.229	5.82	5.12	8.319	8.286	6.328	6.457	6.873	5.501	5.206	4.386	5.238	5.395	5.481	5.206	5.418	5.098	5.132	6.457	7.413	7.413	5.034	7.413	3.846	5.586	6.247	7.278	6.247	7.311	5.395	5.308	6.806	4.12	5.378	3.846	5.238	5.395	5.395	5.12	4.229	4.198	6.247	5.308	5.375	5.453	6.404	6.247	5.395	5.523	5.864	3.858	5.203	8.247	4.44	7.481	3.221	5.238	4.268	4.268	9.052	6.404	5.864	7.267	3.858	4.386	6.247	6.457	2.455	8.709	4.229	3.815	5.395	4.386	5.453	4.37	4.003	2.455	4.898	6.49	6.206	4.229	4.066	6.404	4.386	4.855	5.875	5.064	6.247	5.641	5.437	4.229	3.221	5.621	3.081	4.229	5.501	6.814	8.077	5.378	6.258	5.375	7.256	5.378	4.089	5.632	6.247	3.049	4.898	6.247	5.238	6.247	8.331	4.886	9.514	4.229	6.247	5.258	6.512	9.063	3.092	5.258	8.077	5.406	3.987	4.229	8.077	6.82	4.198	8.229	8.22	3.038	5.503	6.247	4.472	5.308	3.221	4.229	5.249	6.398	6.884	6.884	7.14	6.825	7.694	3.475	6.825	3.858	4.229	5.406	6.015	6.258	8.702	7.518	7.991	4.898	6.664	3.858	6.247	6.652	9.743	6.258	7.035	7.189	6.258	6.884	4.855	6.501	7.353	5.249	6.247	6.332	5.249	5.249	8.697	8.162	7.267	7.267	10.083	5.249	5.249	8.2	5.875	7.566	6.258	5.39	4.886	5.249	8.247	6.46	7.267	6.258	7.267	7.418	6.269	6.884	8.702	5.249	6.512	7.949	6.332	8.207	8.119	7.055	7.278	7.864	7.278	7.418	7.278	6.269	8.204	7.505	8.162	5.281	5.886	6.512	8.247	9.396	7.289	8.692	8.204	8.247	6.972	4.898	6.247	6.247	5.82	6.206	4.581	6.972	5.481	5.258	6.928	7.16	3.221	4.866	3.846	6.589	5.288	5.82	5.939	6.589	4.229	5.066	3.463	5.501	4.046	3.463	4.503	5.097	6.928	6.247	7.438
record-416235	4.095	5.538	4.478	3.596	5.7	3.207	4.873	6.12	4.242	3.593	2.878	2.784	5.207	4.231	1.809	3.995	0	2.149	6.766	2.784	3.607	5.053	2.784	5.209	4.38	5.4	4.809	5.444	3.34	5.449	5.071	4.242	3.518	3.464	2.735	4.207	4.986	2.538	1.562	5.44	3.124	6.766	7.016	4.482	2.784	4.094	4.144	4.335	4.331	4.227	3.789	2.631	4.671	6.766	3.995	4.523	3.478	5.44	3.789	3.789	4.489	3.124	3.523	3.36	1.809	4.518	1.809	4.094	3.936	2.784	2.395	1.995	3.995	3.02	2.784	3.207	2.784	4.981	3.031	2.395	5.393	2.055	5.935	3.207	2.291	4.96	3.936	2.878	4.335	2.291	2.784	3.804	4.582	1.995	1.562	2.784	2.395	4.242	4.971	2.489	3.749	2.784	3.651	1.562	1.902	2.889	2.149	3.7	3.804	5.156	3.853	3.942	4.189	4.582	3.513	4.335	3.124	3.853	4.189	4.435	2.395	3.169	6.084	3.804	3.513	5.4	3.135	3.804	4.089	4.484	2.384	5.684	4.582	4.144	5.938	4.626	3.853	3.864	4.664	5.064	2.631	4.682	2.878	5.616	5.123	3.853	5.938	5.444	4.884	4.155	3.606	4.435	5.538	3.207	3.651	4.626	4.809	3.651	3.909	4.227	4.873	4.884	5.893	4.144	4.144	4.189	4.626	5.494	5.355	5.355	4.38	6.273	3.498	6.52	4.144	6.52	3.789	3.898	6.766	6.766	5.538	3.942	5.164	6.677	5.691	6.195	5.646	4.962	5.949	6.273	6.52	2.784	2.538	3.513	5.053	2.538	3.596	5.689	3.02	4.96	4.095	4.582	3.755	3.36	5.602	3.124	5.444	3.513	3.749	4.715	2.044	3.995	4.518	3.36	3.513	3.758	2.922	3.936	1.562	3.277	2.538	3.607	3.513	3.789	3.031	3.789	2.784	3.789	3.789	5.793	6.601	4.962	4.518	4.724	3.749	3.218	2.735	3.513	3.936	3.749	3.513	4.518	3.502	3.695	4.518	5.393	5.393	3.854	4.626	2.538	3.218	4.242	5.553	4.242	5.207	3.651	4.478	3.936	2.724	4.731	2.538	3.513	3.464	3.936	3.789	2.784	2.489	4.242	4.331	3.547	4.094	3.898	4.242	3.936	3.651	3.995	2.149	2.971	6.184	3.02	5.691	2.055	3.513	2.922	3.36	7.094	4.664	3.995	4.582	2.149	3.207	4.242	4.518	1.562	4.824	2.784	2.242	3.936	3.207	3.898	3.075	2.489	1.562	3.169	4.478	4.962	2.784	2.478	4.664	3.207	3.266	3.606	2.149	4.242	3.075	4.1	2.784	2.055	3.075	2.044	2.784	3.749	3.371	5.7	3.804	3.853	3.547	4.971	3.524	2.384	3.371	4.242	1.749	3.169	4.242	3.513	4.242	6.182	2.878	5.44	2.784	4.242	3.513	5.06	4.664	1.655	3.513	5.7	3.075	2.829	2.784	5.7	5.56	2.489	3.838	5.44	2.138	3.651	4.242	2.389	3.7	2.055	2.784	3.124	3.804	4.335	4.335	6.122	3.075	5.453	1.902	4.435	2.149	2.784	3.547	3.617	3.853	6.04	3.547	3.124	3.169	4.682	2.149	4.242	4.391	4.238	3.853	3.558	3.135	3.853	4.335	3.266	4.089	4.818	3.124	4.242	4.567	3.064	3.124	6.331	5.602	4.582	4.582	5.004	3.124	3.124	4.858	3.606	6.275	3.853	3.135	2.878	3.124	6.184	5.44	4.582	3.853	4.582	4.884	4.144	4.335	6.04	3.124	4.38	6.52	4.567	3.382	5.311	5.538	4.873	5.938	4.873	4.884	4.873	4.144	5.893	5.684	5.602	3.415	3.898	4.38	6.184	6.924	5.164	6.766	5.893	6.184	5.455	3.849	4.242	4.242	3.789	4.962	2.735	5.455	3.749	3.513	4.96	6.03	2.055	2.878	2.538	5.209	4.38	3.789	4.324	5.209	2.784	3.207	2.291	3.749	2.867	2.291	2.971	4.178	4.96	4.242	5.4
record-416342	5.78	6.46	7.006	6.46	7.892	5.943	8.364	6.46	7.892	7.514	6.932	7.748	7.006	7.162	6.872	7.449	7.892	0	7.892	7.892	6.966	6.46	8.152	6.932	7.606	7.006	5.943	7.041	6.385	7.181	7.049	7.892	7.818	7.035	5.78	6.502	6.627	7.449	6.254	7.315	7.748	7.892	7.892	7.108	8.492	6.111	8.098	7.449	7.006	5.943	5.28	6.862	7.606	7.892	6.932	7.251	5.161	7.389	6.111	5.28	8.335	7.748	7.389	6.222	5.28	6.48	6.697	6.111	6.48	7.892	5.161	7.212	7.449	7.006	7.892	5.28	7.892	8.88	8.335	9.163	6.48	7.14	7.006	5.28	6.297	7.041	7.315	5.772	7.449	7.006	7.892	8.098	7.892	8.232	6.254	7.892	6.48	7.892	7.892	7.208	7.478	7.892	7.315	5.809	5.985	7.758	5.28	6.297	7.193	7.606	7.892	5.809	6.769	7.892	7.892	7.449	8.232	8.152	6.769	7.212	6.402	6.769	7.449	8.098	7.892	7.006	7.135	7.758	7.606	5.78	6.822	6.46	8.364	7.212	7.449	8.049	7.892	8.098	6.46	7.449	7.266	6.81	7.305	7.655	6.249	8.492	7.449	7.041	7.758	7.475	7.449	6.695	6.46	6.719	7.266	7.921	5.943	7.266	7.466	6.932	8.364	7.758	7.892	8.152	8.152	6.252	8.049	7.041	7.449	7.449	7.478	7.006	6.719	7.449	8.152	7.449	5.263	7.709	7.892	7.892	6.46	5.809	8.492	7.655	7.006	8.046	7.449	6.489	7.603	7.006	7.449	7.552	6.932	7.892	6.46	7.449	6.46	7.041	7.006	7.041	7.049	7.892	5.78	7.478	7.892	7.748	7.041	7.892	7.006	6.046	7.041	7.449	5.822	5.985	5.822	7.892	5.169	7.286	6.254	7.049	5.772	6.666	7.892	6.111	7.906	6.111	7.892	5.28	6.111	7.449	7.006	6.841	5.822	7.449	6.489	7.758	7.475	7.892	6.48	7.006	6.871	5.822	7.041	5.366	5.822	10.461	10.461	7.41	7.315	7.83	7.655	7.892	7.892	7.892	7.006	6.872	6.501	5.28	6.717	10.828	7.449	7.892	8.098	6.48	6.629	6.695	8.098	7.892	6.501	7.862	5.28	5.78	7.892	6.872	6.502	7.449	5.959	7.212	7.892	5.985	7.006	7.14	7.892	5.169	5.7	7.892	8.88	7.449	7.892	5.959	5.28	7.892	5.822	6.254	5.78	7.892	5.78	5.28	6.872	5.28	9.084	7.375	6.204	5.28	7.006	6.489	7.892	5.943	7.212	6.872	7.449	7.449	6.111	7.892	8.857	7.552	7.892	7.14	7.697	7.162	7.892	6.489	6.266	7.892	8.098	7.892	7.862	7.892	8.098	6.419	8.595	7.892	4.97	5.772	7.892	7.892	7.892	7.449	5.28	10.677	7.892	8.364	7.375	7.006	8.098	5.073	7.375	7.892	7.951	8.83	7.892	7.892	10.285	5.78	6.437	6.502	6.932	7.266	7.892	7.044	5.985	7.788	7.892	7.748	8.098	7.449	7.449	6.46	9.769	7.449	5.516	5.78	6.307	8.152	8.698	6.692	7.892	7.892	7.212	6.769	6.769	6.769	5.959	7.892	6.872	8.098	7.892	7.315	7.697	7.892	7.449	7.449	7.006	7.006	7.748	7.892	6.842	8.901	7.748	7.892	7.892	7.892	8.364	8.098	8.232	7.748	6.872	7.449	7.006	7.892	7.697	6.932	8.281	7.892	8.098	7.892	7.892	7.892	8.098	8.152	7.449	7.892	8.232	7.478	7.449	6.489	8.046	7.892	6.46	8.364	7.449	8.364	7.758	8.364	8.152	7.892	6.46	7.892	6.549	7.709	7.478	7.892	7.758	8.492	7.892	7.892	7.892	7.375	6.772	7.892	7.892	5.28	6.489	7.035	7.375	7.006	7.375	7.041	6.967	7.14	6.769	7.449	6.932	6.501	5.379	6.388	6.932	8.492	7.059	5.436	6.489	6.46	7.006	7.16	5.943	7.041	8.152	7.006
record-416369	9.289	7.82	8.615	7.82	9.749	6.402	9.749	7.82	9.749	9.767	7.764	9.249	8.615	8.047	6.967	9.182	9.249	8.252	0	9.249	8.542	7.82	9.249	7.764	8.615	8.615	6.402	8.047	7.975	7.935	9.637	9.749	8.898	10.058	9.289	7.14	7.935	8.681	7.344	9.637	9.589	9.749	9.749	8.502	9.249	7.935	10.204	9.182	8.615	6.402	6.89	8.454	8.615	9.749	7.764	7.935	6.89	7.14	7.935	8.502	10.317	9.589	9.767	7.031	8.502	7.14	7.912	7.935	8.519	9.249	8.819	6.979	9.182	8.615	9.249	7.749	9.249	10.884	9.816	9.069	10.058	8.479	8.615	7.749	7.17	8.047	8.519	7.764	9.182	8.114	9.249	10.204	9.749	6.979	7.344	9.249	7.875	9.749	9.749	11.775	8.615	9.249	8.519	7.344	7.935	9.009	7.307	7.196	8.442	8.615	9.749	8.364	8.502	9.749	9.749	9.182	9.589	9.749	8.502	9.069	8.819	8.502	9.182	11.291	9.749	8.615	10.521	11.451	8.615	7.14	7.887	7.82	9.749	9.069	9.182	9.182	9.749	10.204	7.82	9.182	8.454	8.898	9.021	10.033	8.898	9.749	9.182	8.047	10.204	10.204	9.182	9.499	7.82	7.82	8.615	9.182	6.402	8.615	9.069	7.82	9.749	11.451	9.749	9.749	9.749	8.932	9.182	8.047	9.182	9.182	8.615	8.615	7.82	9.182	9.749	9.182	7.57	9.182	9.749	9.749	7.82	8.364	9.749	9.637	8.615	9.637	9.182	7.196	9.069	8.615	9.182	9.249	7.737	9.749	7.82	8.681	7.82	8.047	8.615	8.047	9.767	9.749	7.14	8.615	9.749	9.589	8.047	9.749	8.615	6.629	7.547	9.182	7.14	7.935	8.502	9.749	7.975	8.519	7.344	9.637	7.737	7.598	9.749	7.935	9.637	7.935	9.249	8.502	7.935	9.182	8.615	7.935	8.502	9.182	7.196	9.289	8.823	9.749	8.519	8.615	9.069	7.14	8.047	7.797	8.502	10.058	10.058	9.11	10.058	8.681	9.637	9.749	9.749	9.749	8.615	8.519	7.935	8.502	7.935	10.204	8.681	9.749	10.317	11.978	7.935	9.249	8.519	9.749	7.935	7.14	8.502	9.289	9.749	8.519	8.502	9.182	8.252	9.069	9.749	7.935	8.615	8.479	9.749	7.975	7.975	9.749	9.289	9.182	9.749	8.252	11.41	9.749	8.502	7.344	13.112	9.249	7.749	7.764	7.749	7.764	10.181	8.255	6.4	8.502	8.615	7.196	9.249	6.402	9.289	7.749	9.182	9.182	7.935	9.749	8.898	8.733	9.249	8.479	9.637	7.547	9.249	7.196	9.069	9.749	10.204	9.749	7.14	9.749	10.204	7.887	10.156	9.749	6.89	7.647	9.749	9.749	9.749	9.182	8.502	10.204	9.249	9.749	8.331	8.615	12.545	7.117	8.331	9.749	10.107	9.637	9.249	9.749	7.14	8.519	9.637	8.502	7.319	8.615	9.749	8.315	7.935	8.479	9.249	9.589	11.291	9.182	9.182	7.82	11.088	9.182	7.684	7.14	7.307	9.249	7.14	10.294	9.749	9.749	9.069	8.502	8.502	9.637	8.252	9.749	10.317	10.204	9.749	10.884	9.637	9.749	9.182	9.182	8.615	8.615	9.589	9.749	7.14	9.589	9.589	9.749	9.749	9.749	9.749	10.204	9.589	9.589	9.069	9.182	8.615	9.749	10.521	7.764	9.589	9.749	7.14	9.749	9.749	9.749	10.204	9.749	9.182	9.749	9.589	8.615	9.182	7.14	9.637	9.749	7.82	9.749	9.182	9.749	10.204	9.749	9.749	9.749	7.82	9.749	8.215	9.182	8.615	9.749	10.204	9.749	9.749	9.749	9.749	8.331	7.647	9.749	9.749	8.502	7.196	9.289	8.331	8.615	8.331	8.047	7.935	8.479	8.502	8.681	7.764	7.935	8.502	7.82	7.764	9.249	7.82	8.024	7.196	7.82	8.114	8.502	6.402	8.047	9.749	8.615
record-416433	4.02	4.08	4.333	3.772	4.926	3.206	4.926	4.08	4.742	4.604	3.487	3.814	4.333	3.634	3.391	4.445	3.814	3.393	4.926	0	3.626	4.08	3.814	3.755	3.931	4.333	3.206	3.977	3.33	4.319	4.693	4.618	4.097	4.123	4.03	4.96	3.653	3.517	2.757	4.882	4.154	4.926	4.926	4.44	3.76	3.33	5.121	4.629	3.901	3.206	4.845	3.561	3.931	4.926	3.755	3.653	3.855	3.4	3.33	3.949	5.038	4.154	4.003	2.96	3.949	4.96	3.053	3.33	5.862	3.814	3.69	2.628	4.445	3.685	3.814	5.566	3.814	3.4	4.11	4.246	5.614	3.35	4.333	5.093	2.85	3.977	5.862	3.487	4.629	3.221	3.814	4.838	4.926	2.628	2.757	3.814	4.96	4.742	4.926	4.413	4.149	3.814	5.862	2.22	3.518	5.557	4.845	3.3	3.616	3.931	4.618	3.112	3.949	4.926	4.278	4.629	4.154	4.494	3.949	4.246	3.814	3.949	4.629	3.4	4.278	4.333	5.329	5.453	3.931	3.4	3.316	4.08	4.926	4.246	4.629	4.227	4.618	4.838	4.08	4.629	3.561	3.746	3.857	3.4	4.348	4.524	4.629	3.977	5.557	4.391	4.321	3.705	4.08	3.648	3.901	4.629	3.206	3.901	4.128	4.08	4.926	5.557	4.926	4.494	4.494	3.408	4.227	3.977	4.629	4.629	4.333	4.333	3.594	4.629	4.494	4.629	2.859	4.197	4.926	4.926	4.08	3.112	4.524	4.542	4.333	4.731	4.629	3.458	4.435	4.333	4.629	3.814	3.147	4.278	4.08	3.517	3.896	3.977	3.685	3.977	4.003	4.926	3.4	4.025	4.926	4.154	3.977	4.278	4.149	3.162	2.924	4.445	4.306	3.463	3.626	3.556	3.276	5.403	2.757	4.542	3.147	3.256	4.278	3.33	4.587	3.33	3.814	3.949	3.33	4.629	4.333	4.143	3.626	4.629	3.458	5.806	3.659	4.278	5.862	4.149	4.056	4.306	3.904	2.815	3.626	4.484	4.484	3.923	5.969	3.517	4.825	4.742	4.926	4.742	4.333	5.2	3.803	3.949	3.234	4.838	3.517	4.278	4.467	3.556	3.33	3.277	3.733	4.742	3.803	3.308	3.949	4.02	4.742	5.208	3.874	4.445	3.393	4.52	4.926	3.463	4.333	3.35	4.278	3.112	2.793	4.926	4.02	4.445	4.926	3.393	3.092	4.742	3.626	2.757	5.775	3.814	4.117	3.614	5.566	4.845	4.989	3.337	2.386	3.949	4.333	3.458	3.814	2.938	4.02	5.566	3.981	4.321	3.33	4.742	3.973	5.342	3.814	3.35	3.999	2.87	3.814	3.458	3.923	4.926	4.838	4.618	3.308	4.926	4.838	3.316	4.45	4.742	2.844	3.363	4.742	4.278	4.742	4.629	3.949	5.553	3.814	4.742	3.907	4.333	5.478	2.8	3.907	4.926	4.343	4.693	3.814	4.926	3.4	3.733	4.542	3.949	2.968	3.901	4.742	3.4	3.803	3.35	3.814	4.154	3.4	4.629	4.629	4.08	5.979	4.629	3.097	3.4	3.023	3.814	3.4	3.4	4.618	4.926	4.246	3.949	3.949	5.033	3.393	4.742	4.586	4.838	4.618	5.157	4.339	4.618	4.629	3.981	4.333	4.333	4.154	4.742	3.4	4.154	4.154	4.926	4.926	4.926	4.926	4.838	4.154	4.154	4.586	4.321	4.333	4.618	4.339	3.487	4.1	4.926	5.178	4.926	4.618	4.926	4.838	4.494	4.629	4.926	4.154	4.333	4.629	3.4	4.731	4.926	4.08	4.926	4.629	4.926	5.557	4.926	4.494	4.926	4.08	4.926	3.659	4.143	4.333	4.926	5.557	4.524	4.926	4.926	4.926	4.051	3.363	4.742	4.742	3.949	3.458	3.659	4.051	4.149	3.907	3.977	3.653	3.35	3.949	3.517	3.755	3.803	3.855	3.864	3.755	3.76	3.59	3.024	3.458	3.432	3.221	3.53	3.206	3.977	4.494	4.333
record-416935	8.804	7.48	8.652	7.48	10.163	7.037	10.163	7.48	10.163	9.693	8.964	9.605	8.652	8.186	8.147	9.407	9.605	8.448	10.163	9.605	0	7.48	9.605	8.964	8.652	8.652	7.037	8.186	7.365	7.864	9.451	10.163	10.476	11.115	10.904	7.564	7.184	8.849	7.352	10.239	9.945	10.163	10.163	8.279	9.605	6.685	10.995	9.407	8.652	7.037	5.925	8.433	8.652	10.163	8.964	7.184	5.925	6.8	6.685	8.511	10.919	9.945	9.693	7.403	8.511	7.564	8.108	6.685	8.571	9.605	5.925	6.582	9.407	8.652	9.605	6.726	9.605	11.614	10.361	9.267	9.545	8.864	8.652	6.726	8.024	8.186	8.063	9.428	9.407	8.093	9.605	10.995	10.163	6.582	7.352	9.605	9.242	10.163	10.163	8.063	8.652	9.605	8.063	7.352	7.184	10.754	8.951	8.101	9.998	8.652	10.163	8.372	8.727	10.163	10.163	9.407	9.945	10.163	8.727	9.483	9.204	8.727	9.407	6.8	10.163	8.652	6.8	6.8	8.652	6.8	7.967	7.48	10.163	9.483	9.407	9.407	10.163	10.995	7.48	9.407	8.433	10.476	9.189	6.8	10.476	10.163	9.407	8.186	10.995	10.995	9.407	9.884	7.48	7.48	8.652	9.407	7.037	8.652	9.483	7.48	10.163	6.8	10.163	10.163	10.163	9.128	9.407	8.186	9.407	9.407	8.652	8.652	7.48	9.407	10.163	9.407	7.201	9.407	10.163	10.163	7.48	8.372	10.163	10.239	8.652	10.239	9.407	8.209	9.483	8.652	9.407	9.605	8.887	10.163	7.48	8.849	7.48	8.186	8.652	8.186	9.353	10.163	6.8	8.652	10.163	9.945	8.186	10.163	8.652	7.453	7.627	9.407	7.564	6.685	7.441	10.904	7.365	8.063	7.352	9.451	9.351	8.159	10.163	6.685	10.018	6.685	9.605	8.511	6.685	9.407	8.652	7.524	7.441	9.407	8.209	9.866	10.308	10.163	8.571	8.652	8.197	7.564	8.186	7.906	7.441	9.545	9.545	8.877	9.545	8.849	10.239	10.163	10.163	10.163	8.652	8.063	7.184	8.511	7.972	10.779	8.849	10.163	10.919	12.309	6.685	9.605	10.148	10.163	7.184	7.564	8.511	8.804	10.163	8.063	8.279	9.407	8.448	10.705	10.163	6.685	8.652	8.864	10.163	7.365	7.365	10.163	8.804	9.407	10.163	8.448	6.726	10.163	7.441	7.352	13.821	9.605	7.322	9.428	7.066	9.428	6.8	9.552	7.391	8.511	8.652	8.209	9.605	7.037	8.548	7.066	9.407	9.407	6.685	10.163	10.476	9.671	9.605	8.864	10.239	7.627	9.605	8.209	8.197	10.163	10.995	10.163	7.564	10.163	10.995	7.967	10.701	10.163	6.521	9.291	10.163	10.163	10.163	9.407	8.511	10.779	9.605	10.163	9.72	8.652	13.065	7.226	9.72	10.163	10.609	10.239	9.605	10.163	6.8	10.148	9.451	8.279	6.922	8.652	10.163	8.045	7.184	8.864	9.605	9.945	6.8	9.407	9.407	7.48	6.8	9.407	7.692	6.8	8.487	9.605	6.8	11.056	10.163	10.163	9.483	8.727	8.727	9.791	8.448	10.163	10.919	10.995	10.163	11.797	10.239	10.163	9.407	9.407	8.652	8.652	9.945	10.163	6.8	9.945	9.945	10.163	10.163	10.163	10.163	10.995	9.945	9.945	9.483	9.407	8.652	10.163	6.8	8.964	9.945	10.163	6.8	10.163	10.163	10.163	10.995	10.163	9.407	10.163	9.945	8.652	9.407	6.8	10.239	10.163	7.48	10.163	9.407	10.163	10.995	10.163	10.163	10.163	7.48	10.163	9.582	9.407	8.652	10.163	10.995	10.163	10.163	10.163	10.163	9.72	8.571	10.163	10.163	8.511	8.209	10.942	9.72	8.652	9.72	8.186	7.524	8.864	8.727	8.849	8.964	7.184	8.511	7.48	8.964	9.605	7.48	8.093	8.209	7.48	8.093	8.727	5.925	8.186	10.163	8.652
record-417720	2.547	3.043	2.555	2.309	2.784	1.823	2.752	3.4	2.317	1.835	1.585	1.835	2.792	2.475	1.008	2.501	1.835	1.937	3.4	1.843	2.285	0	1.835	2.16	2.752	3.092	2.16	3.043	2.277	3.043	2.16	2.501	1.483	2.605	2.957	2.515	2.16	1.835	1.605	2.72	2.175	3.4	3.043	1.957	1.835	1.925	2.309	2.649	2.515	2.16	2.277	2.175	2.855	3.4	1.72	2.617	2.277	2.989	2.277	2.515	2.309	2.309	1.245	1.688	1.008	2.515	1.597	1.925	2.309	1.835	2.072	2.368	2.309	2.072	1.835	2.072	1.835	2.523	2.072	1.348	2.784	1.597	3.029	2.072	1.245	2.792	2.309	1.585	2.657	1.835	1.835	1.843	2.649	2.368	1.597	1.835	1.348	2.309	2.547	2.317	2.309	1.835	2.309	1.601	1.843	2.264	1.348	1.957	2.895	2.784	2.412	2.541	2.028	2.649	2.072	2.657	2.175	2.412	2.028	2.028	1.835	1.688	3.227	2.175	2.072	3.092	1.937	2.863	2.649	3.06	2.179	3.227	2.649	1.925	3.043	2.752	2.412	2.183	2.887	2.887	2.175	2.028	2.175	2.16	2.16	2.412	3.043	3.043	2.515	2.285	2.412	2.541	3.043	2.412	2.515	2.752	2.16	2.515	2.281	2.752	2.752	2.515	3.092	2.515	2.515	2.541	2.752	3.221	2.989	2.989	2.68	3.4	2.515	3.329	2.515	3.4	2.541	2.515	3.329	3.329	3.043	2.541	2.855	3.043	3.043	2.16	3.092	2.16	2.16	3.4	3.4	1.843	1.245	2	2.784	1.835	2.309	3.029	2.072	2.788	1.835	2.649	2.887	2.412	2.997	2.175	3.043	2.072	2.309	2.16	1.839	2.309	2.515	1.688	2.08	2.309	2.277	2.309	1.597	1.245	1.245	1.688	2.072	2.277	1.843	2.277	1.843	2.515	2.277	3.124	3.259	2.16	2.515	2.547	1.72	3.195	1.245	2	2.309	2.309	2.08	2.515	2.317	2.621	2.277	2.784	2.784	2.285	3.907	1.843	2.317	2.309	2.76	2.309	2.784	2.309	1.957	2.547	2.501	1.839	1.835	2.08	2.08	2.547	2.277	1.839	2.957	2.317	2.028	2.412	1.925	2.784	2.309	2.309	2.072	2.309	2.072	2.309	3.043	2.08	3.043	1.597	2.072	2.277	2.281	3.259	2.547	2.309	2.649	2.072	2.547	2.309	2.277	1.605	2.547	1.835	2.965	1.823	2.072	1.925	1.597	1.245	1.008	1.688	2.555	2.16	1.835	1.483	2.547	2.072	2	2.42	1.937	2.309	1.483	1.688	1.835	1.597	2.08	1.839	1.835	1.72	2.175	2.784	1.835	2.547	2.412	2.547	1.835	2.076	2.072	2.309	2	1.688	2.309	2.072	2.309	3.021	1.585	2.515	1.835	2.309	1.483	2.752	2.547	1.941	1.483	2.784	2.183	1.605	1.835	2.792	2.989	2.957	2.515	2.277	1.835	2.515	2.309	2.072	2.028	1.597	1.835	2.175	2.175	2.649	2.649	3.361	1.937	2.784	1.937	2.887	1.348	1.835	2.412	2.175	2.412	3.124	2.72	2.175	1.688	2.625	1.937	2.309	2.515	2.72	2.412	2.515	1.348	2.412	2.649	2.08	2.649	2.887	2.175	2.309	2.752	2.175	2.309	3.227	2.997	2.649	2.649	2.72	2.175	2.175	2.72	2.412	3.361	2.412	1.941	1.585	2.175	3.043	3.06	2.649	2.412	2.649	2.515	2.515	2.649	3.043	2.175	2.752	3.4	2.752	1.945	2.887	3.043	2.752	3.043	2.752	2.515	2.752	2.515	3.092	3.227	2.989	1.688	2.515	2.752	3.043	3.043	2.855	3.329	3.092	3.043	2.16	1.688	2.317	2.317	2.515	2.16	2.368	2.16	2.309	1.483	2.792	2.16	1.597	2.175	1.835	2.16	2.545	2.515	2.555	2.16	1.835	2.34	1.835	1.72	2.072	1.835	1.72	1.925	2.788	2.309	3.092
record-417935	2.873	3.233	3.107	2.727	3.867	2.533	2.707	3.66	2.613	2.54	2.093	2.26	3.267	2.4	1.667	2.947	2.28	1.667	4.147	2.28	2.693	3.233	0	2.947	2.333	3.013	2.807	3.08	1.827	3.053	3.06	3.133	2.413	2.307	2.193	2.167	2.927	2.093	1.48	3.06	2.28	4.067	3.64	2.893	2.26	2.54	2.96	2.947	2.86	2.3	2.333	1.907	2.587	4.067	2.707	2.3	1.74	2.973	2.333	2.727	3.06	2.28	2.653	2.12	1.667	2.627	1.667	2.587	2.727	2.28	1.74	1.7	2.587	2.333	2.28	2.24	2.28	3.06	3.06	1.853	3.58	1.853	3.267	2.24	1.907	3.08	2.727	2.033	3.34	1.907	2.28	3.06	3.133	1.633	1.48	2.28	1.853	3.133	3.56	2.007	2.333	2.28	2.587	1.3	1.593	3.06	1.667	2.553	3.06	2.587	2.707	2.16	2.347	3.133	2.707	3.34	2.553	2.28	2.347	2.533	1.967	1.667	3.373	2.6	2.707	3.013	2.193	3.06	2.333	3.06	1.7	3.153	2.707	2.28	3.453	2.52	2.707	3.06	3.153	3.88	1.887	1.82	2.093	2.533	1.82	2.893	3.453	3.08	3.06	3.06	2.947	2.533	3.153	1.873	1.907	2.52	2.727	1.907	3.06	2.3	2.707	3.06	3.387	2.28	2.28	2.347	2.52	3.12	2.947	2.947	2.333	3.48	1.873	3.627	2.28	3.92	2.127	2.093	3.813	3.813	3.233	2.16	2.96	3.06	3.267	3.06	3.2	2.84	3.06	3.52	3.88	1.76	2.093	2.707	3.46	2.093	2.727	3.08	2.333	3.12	2.873	3.133	3.06	2.333	3.133	2.28	3.08	2.64	2.76	2.653	1.72	2.947	2.973	2.213	2.707	2.687	1.48	2.167	1.48	3.06	2.107	2.333	2.707	2.333	3.06	2.727	2.28	2.333	2.333	3.92	3.52	2.84	2.627	3.373	2.52	2.433	2.073	2.707	2.727	2.76	2.493	2.507	2.567	1.973	2.627	3.513	3.513	2.88	3.2	2.093	2.433	3.133	3.573	3.133	3.52	2.567	2.553	2.727	2.06	3.06	2.093	2.707	2.26	2.727	2.033	1.967	2.073	3.133	2.553	2.3	2.587	2.773	3.133	2.707	2.587	2.947	1.667	2.247	3.64	2.333	3.267	1.853	2.707	1.48	1.56	4.147	3.153	2.947	3.133	1.667	2.24	3.133	2.627	1.48	3.3	2.28	1.82	2.727	2.24	2.093	3.06	2.067	1.48	1.667	3.147	2.84	2.28	2.147	2.82	2.24	2.52	2.52	1.667	3.093	2.307	3.06	2.28	1.853	3.06	1.7	2.28	2.52	2.92	3.867	3.06	2.707	2.3	3.56	3.06	1.993	3.06	3.133	1.447	2.033	3.133	2.707	3.133	3.92	2.093	3.06	2.28	2.707	2.6	3.327	3.113	1.293	2.6	3.867	3.06	2.873	2.28	3.64	3.06	2.007	1.873	3.06	1.807	1.907	3.133	2.073	2.333	1.853	2.28	2.28	2.6	2.947	2.947	3.66	3.06	3.68	1.48	3.06	1.667	1.92	2.413	2.007	3.133	4.147	2.373	2.06	1.667	2.3	1.667	3.133	3.06	3.06	2.707	3.06	2.193	2.707	2.947	2.52	2.76	3.52	2.28	3.093	2.3	2.04	2.28	3.56	3.133	3.133	2.707	3.06	2.553	2.28	2.967	2.52	3.52	2.707	2.193	2.093	2.6	3.64	3.16	3.773	3.133	3.133	2.62	2.28	2.947	3.64	2.553	2.333	3.8	2.3	3.06	3.133	3.233	2.707	3.373	2.707	3.06	2.707	2.28	3.387	3.153	3.133	1.853	2.093	2.333	3.64	3.06	2.96	3.813	3.387	3.64	3.213	2.253	3.133	3.133	2.333	2.84	2.013	3.213	2.76	2.187	3.08	3.013	1.853	2.3	2.093	3.027	2.8	2.08	2.62	3.027	2.26	2.327	1.253	2.52	2.3	1.907	2.247	2.58	2.827	2.28	3.013
record-420433	2.38	3.099	3.443	3.06	4.088	2.098	4.018	3.06	4.127	3.75	2.784	3.928	3.443	2.777	2.784	3.746	4.088	3.156	4.088	4.127	3.785	3.099	3.588	0	3.244	3.404	2.098	2.777	2.904	3.178	4.204	4.088	3.469	2.38	2.38	2.649	2.724	3.746	3.333	3.75	3.928	4.088	4.127	3.52	3.928	2.724	4.093	3.746	3.404	2.098	2.38	3.244	3.244	4.088	2.784	3.242	2.219	3.509	2.724	3.066	4.43	3.928	3.75	2.442	3.066	2.38	3.496	2.724	2.38	4.088	2.219	3.079	3.746	3.404	4.088	2.38	4.088	2.38	4.469	3.408	2.38	3.838	3.443	2.38	2.442	2.777	2.38	2.649	3.785	3.404	4.088	4.093	4.088	2.38	3.154	4.088	3.074	4.088	4.088	3.842	3.333	4.088	2.38	2.744	3.075	3.759	2.732	2.442	3.417	3.244	4.088	2.744	3.066	4.088	4.088	3.785	3.928	3.588	3.066	3.408	3.498	3.066	3.746	3.938	4.088	3.404	3.509	2.38	3.244	2.38	2.566	3.06	4.018	3.408	3.785	3.586	4.088	4.093	3.06	3.746	2.904	2.649	3.586	3.509	2.649	3.928	3.785	2.777	4.093	4.093	3.746	3.428	3.099	2.559	2.904	3.675	2.098	2.904	3.412	2.989	4.018	2.38	4.088	3.588	3.588	3.086	3.586	2.777	3.746	3.746	3.353	3.404	2.559	3.746	3.588	3.746	2.399	3.246	4.088	4.088	3.099	2.744	3.928	3.75	3.443	3.806	3.746	2.442	3.464	3.404	3.746	3.588	2.784	4.127	3.06	3.746	3.06	2.777	3.404	2.777	3.75	4.088	2.38	3.333	4.127	3.928	2.777	4.088	3.404	2.1	2.777	3.746	3.509	3.178	3.066	4.088	2.474	3.079	3.154	3.75	2.649	2.784	4.088	2.724	4.117	3.672	4.127	3.066	2.724	3.746	3.404	3.178	3.066	3.746	2.442	2.38	3.469	4.127	2.38	3.404	3.862	2.38	2.777	2.477	3.066	4.368	4.368	3.75	2.38	3.785	3.75	4.088	4.127	4.088	3.404	2.38	3.178	3.066	2.78	4.093	3.746	4.127	4.781	3.75	3.242	3.428	3.938	4.127	3.178	2.38	3.066	2.38	4.088	2.38	3.066	3.746	3.156	3.408	4.127	3.178	3.443	3.838	4.088	2.474	2.812	4.088	2.38	3.746	4.088	3.156	3.408	4.088	3.066	3.333	4.435	4.088	2.38	2.784	2.38	2.784	2.38	3.126	2.442	3.066	3.443	2.442	4.088	2.098	3.079	2.38	3.785	3.785	2.724	4.088	3.845	3.469	4.088	3.838	4.065	2.777	4.088	2.442	3.408	4.088	4.093	4.088	2.38	4.088	4.093	2.777	4.093	4.088	2.649	2.649	4.088	4.088	4.088	3.746	3.066	4.093	4.088	4.018	3.126	3.404	4.093	2.477	3.126	4.088	4.358	3.75	4.088	4.127	2.38	2.38	2.219	3.066	2.989	2.904	4.088	3.152	3.178	3.838	4.088	3.928	3.938	3.746	3.746	3.06	2.38	3.746	2.814	2.38	3.408	3.588	3.079	3.079	4.088	4.088	3.408	3.754	3.066	2.649	3.156	4.088	3.93	4.093	4.088	2.38	3.414	4.088	3.746	3.785	3.404	3.404	3.928	4.088	2.649	2.649	3.928	4.088	4.127	4.088	4.018	4.093	3.928	3.928	3.408	3.746	3.404	4.088	3.509	2.784	3.928	4.127	3.938	4.088	4.088	4.088	4.781	3.588	3.746	4.127	3.928	3.333	3.746	2.649	3.806	4.088	3.099	4.018	3.785	4.018	4.093	4.018	3.588	4.088	3.06	4.088	2.734	3.246	3.333	4.127	4.093	3.928	4.088	4.088	4.127	3.126	2.784	4.127	4.127	3.066	2.442	2.38	3.126	3.404	3.126	2.777	2.724	3.838	3.922	3.746	2.784	3.178	3.066	2.989	2.784	3.928	2.919	2.474	2.442	3.06	3.404	3.122	2.098	2.777	3.588	3.404
record-422302	2.04	2.181	2.449	2.404	2.04	1.771	2.04	2.72	2.04	2.323	2.04	2.04	2.449	1.465	2.196	2.04	2.04	2.04	2.04	2.04	2.04	2.181	2.04	2.04	0	2.18	1.771	2.127	1.892	2.161	2.04	2.04	2.04	2.04	2.04	2.004	2.04	2.04	2.471	2.04	2.04	2.04	2.04	2.04	2.04	2.04	2.04	2.04	2.18	1.688	1.912	2.329	1.769	2.04	2.04	1.828	1.289	2.733	1.912	2.323	2.04	2.04	2.04	1.956	2.04	2.323	2.04	2.04	2.04	2.04	1.501	2.216	2.04	2.553	2.04	2.323	2.04	2.04	2.04	2.04	2.04	2.04	2.449	1.912	2.039	2.127	2.04	1.912	2.04	2.553	2.04	2.04	2.04	2.04	2.491	2.04	2.323	2.04	2.04	2.04	2.18	2.04	2.04	1.359	1.971	2.04	1.912	2.039	2.04	1.769	2.04	1.359	1.663	2.04	2.04	2.04	2.04	2.04	1.663	2.04	2.04	1.663	2.04	2.04	2.04	2.18	2.399	2.04	1.769	2.04	1.465	2.533	2.04	2.04	2.04	2.04	2.04	2.04	2.533	2.04	1.769	1.487	2.04	2.647	1.699	2.04	2.04	2.127	2.04	2.04	2.04	2.04	2.181	1.501	1.769	2.04	1.771	1.769	2.003	1.912	2.04	2.04	2.04	2.04	2.04	1.663	2.04	2.127	2.04	2.04	2.132	2.553	1.417	2.04	2.04	2.04	1.091	2.073	2.04	2.04	2.181	1.359	2.04	2.04	2.449	2.04	2.04	2.039	2.04	2.553	2.04	2.04	2.04	2.04	2.72	2.04	2.72	2.127	2.62	2.127	2.04	2.04	2.04	2.18	2.04	2.04	2.127	2.04	2.553	1.735	2.127	2.04	1.912	2.039	2.04	2.04	1.359	2.323	2.491	2.04	1.912	1.967	2.04	1.912	2.04	2.323	2.04	2.323	2.323	2.04	2.553	2.039	2.04	2.04	2.039	2.04	2.04	2.04	2.04	2.553	2.04	1.912	2.127	1.055	2.323	2.04	2.04	2.04	2.04	1.935	2.04	2.04	2.04	2.04	2.553	2.323	2.039	2.04	2.04	2.04	2.04	2.04	2.04	2.04	1.912	2.04	2.04	2.04	2.039	2.04	2.04	2.04	2.04	2.323	2.04	2.04	2.04	2.04	2.04	2.161	2.449	2.04	2.04	1.359	1.253	2.04	2.04	2.04	2.04	2.04	2.04	2.04	2.04	2.471	2.04	2.04	2.04	2.04	2.323	1.912	2.04	2.04	2.039	1.663	2.449	2.039	2.04	1.771	2.323	2.323	2.04	2.04	2.04	2.04	2.04	2.04	2.04	2.04	2.04	1.465	2.04	2.039	2.04	2.04	2.04	2.04	2.04	2.04	2.04	1.937	2.04	2.04	1.771	1.912	2.04	2.04	2.04	2.04	2.04	2.04	2.04	2.04	2.04	2.553	2.04	1.703	2.04	2.04	2.04	2.04	2.04	2.04	2.04	2.04	1.501	2.04	1.912	1.769	2.04	1.769	1.956	2.04	2.04	2.04	2.04	2.04	2.04	2.72	2.04	2.04	2.039	2.04	2.04	2.04	2.323	2.003	2.04	2.04	1.935	1.805	1.663	1.912	2.04	2.04	2.323	2.04	2.04	2.04	2.307	2.04	2.04	2.04	2.553	2.553	2.04	2.04	1.912	1.805	2.04	2.04	2.04	2.04	2.04	2.04	2.04	2.04	2.323	2.04	2.553	2.04	2.095	2.04	2.04	2.04	2.04	2.04	2.04	2.04	2.04	2.04	2.04	2.04	2.04	2.18	2.04	1.912	2.04	2.04	2.181	2.04	2.04	2.04	2.04	2.04	2.04	2.04	2.533	2.04	1.967	1.989	2.18	2.04	2.04	2.04	2.04	2.04	2.04	2.04	2.04	2.04	2.04	2.04	2.039	2.04	2.04	2.553	2.04	2.127	2.04	2.04	1.912	2.04	2.04	2.161	1.501	2.181	2.04	2.04	1.501	1.359	2.039	2.72	2.553	2.04	1.771	1.876	2.04	2.18
record-422665	3.74	4.618	5.298	4.42	6.128	3.056	6.128	4.42	6.322	7.66	4.252	6.128	5.298	4.401	4.252	5.616	6.128	5.616	6.128	6.322	5.81	4.618	6.128	4.252	4.907	0	3.056	4.471	5.104	4.424	5.959	6.128	5.276	6.464	3.74	7.148	4.424	5.616	5.298	5.959	6.128	6.128	6.322	4.936	5.931	4.424	6.471	5.616	5.104	3.056	6.636	5.104	4.907	6.128	4.252	4.424	6.134	3.74	4.424	4.936	6.639	6.128	5.959	3.74	4.936	7.148	5.616	4.424	7.659	6.128	6.128	3.74	5.616	5.104	6.128	7.148	6.128	7.346	6.834	5.448	7.659	6.128	5.298	6.636	3.74	4.471	7.659	4.252	5.81	5.104	6.128	6.471	6.128	3.74	5.104	6.128	4.764	6.128	6.128	6.907	5.104	6.128	7.659	3.931	4.424	5.788	4.252	3.74	5.276	4.907	6.128	3.931	4.936	6.128	6.128	5.81	6.128	6.128	4.936	5.448	6.128	4.936	5.616	7.663	6.128	5.104	8.171	8.171	4.907	3.74	4.471	4.42	6.128	5.448	5.81	5.419	6.128	6.471	4.42	5.616	5.104	5.44	5.616	6.3	5.276	5.931	5.81	4.471	6.471	7.364	5.616	4.955	4.618	4.42	5.104	5.616	3.056	5.104	5.446	4.42	6.128	8.171	6.128	6.128	6.128	4.443	5.419	4.471	5.616	5.616	5.298	5.104	4.223	5.616	6.128	5.616	3.248	5.616	6.128	6.128	4.618	3.931	5.931	5.959	5.298	5.959	5.616	3.74	5.448	5.104	5.616	6.322	4.252	6.322	4.42	5.616	4.42	4.471	5.104	4.471	5.959	6.128	3.74	5.104	6.322	6.128	4.471	6.128	5.104	3.228	4.471	5.616	6.636	4.424	4.936	6.128	4.805	3.74	5.104	5.959	4.252	4.252	6.128	4.424	5.959	4.424	6.322	4.936	4.424	5.616	5.104	4.424	4.936	5.616	3.74	8.171	5.276	6.322	7.659	5.104	5.448	6.636	4.471	3.42	4.936	3.74	3.74	6.322	7.659	5.81	5.959	6.128	6.322	6.128	5.104	7.148	4.424	4.936	4.429	6.471	5.616	6.322	6.834	5.959	4.424	4.955	3.74	6.322	4.424	3.74	4.936	3.74	6.128	7.148	4.936	5.616	5.616	5.448	6.322	4.424	5.298	6.128	6.128	4.665	3.931	6.128	3.74	5.616	6.128	5.616	5.448	6.128	4.936	5.298	6.983	6.128	3.74	4.252	7.148	4.252	8.171	4.764	3.74	4.936	5.298	3.74	6.128	3.056	3.74	7.148	5.81	5.81	4.424	6.128	5.276	5.276	6.128	6.128	5.959	4.401	6.128	3.74	5.448	6.128	6.471	6.128	3.74	6.128	6.471	4.471	6.639	6.128	4.618	4.252	6.128	6.128	6.128	5.616	4.936	6.471	6.128	6.128	4.764	5.104	6.471	4.471	4.764	6.128	6.834	5.959	6.128	6.322	3.74	3.74	5.959	4.936	4.42	5.104	6.128	4.907	4.424	6.128	6.128	6.128	7.663	5.616	5.616	4.42	8.683	5.616	5.104	3.74	4.252	6.128	3.74	6.713	6.128	6.128	5.448	4.936	4.936	5.959	5.616	6.128	7.148	6.471	6.128	7.659	5.959	6.128	5.616	5.81	5.104	5.104	6.128	6.128	3.74	6.128	6.128	6.128	6.322	6.128	6.128	6.471	6.128	6.128	5.448	5.616	5.104	6.128	6.464	4.252	5.931	6.322	8.171	6.128	6.128	6.128	6.471	6.128	5.616	6.322	6.128	5.104	5.616	3.74	5.959	6.128	4.618	6.128	5.81	6.128	6.471	6.128	6.128	6.128	4.42	6.128	4.764	5.419	5.104	6.322	6.471	5.931	6.128	6.128	6.322	4.764	4.252	6.322	6.322	4.936	3.74	6.464	4.764	5.104	4.764	4.471	4.424	6.128	4.936	5.616	4.252	4.424	6.652	4.618	4.252	5.931	4.266	4.665	3.74	4.42	5.104	4.936	3.056	4.471	6.128	5.104
record-425094	2.38	1.7	1.7	3.06	1.7	4.42	3.06	1.7	1.693	1.7	1.7	3.06	1.7	1.7	1.7	1.7	3.06	1.7	1.7	1.7	1.7	1.7	3.06	1.7	3.06	1.7	0	1.7	3.06	1.7	1.7	1.7	1.7	2.38	2.38	2.38	1.7	3.06	1.7	1.7	1.7	1.7	1.7	1.7	3.06	1.7	1.7	3.06	1.7	1.7	2.38	3.06	1.7	1.7	1.7	1.7	2.38	2.38	1.7	1.7	3.733	3.06	1.7	1.7	1.7	2.38	3.06	1.7	2.38	3.06	3.06	3.407	1.7	3.06	3.06	2.38	3.06	1.7	3.733	1.7	2.38	3.06	1.7	2.38	1.7	1.7	2.38	1.7	1.7	1.7	3.06	2.707	3.407	3.407	1.7	3.06	1.7	3.06	1.7	4.42	4.747	1.7	2.38	3.06	1.7	3.733	1.7	1.7	2.72	3.06	3.733	3.06	1.7	3.06	3.06	1.7	3.06	3.06	1.7	1.7	3.06	1.7	1.7	4.42	3.06	1.7	4.42	4.42	3.06	2.38	3.06	1.693	3.06	1.7	1.7	3.06	3.06	2.707	3.06	2.707	3.06	3.407	3.06	1.7	4.42	3.06	1.7	1.7	2.707	2.707	3.06	3.06	4.42	3.06	1.7	3.06	4.42	3.06	1.693	3.06	3.06	4.42	1.7	3.06	3.06	3.06	3.06	1.7	3.06	1.7	1.7	1.693	3.06	2.707	3.06	1.7	1.7	1.7	3.06	1.7	1.7	3.06	3.06	2.707	1.7	1.693	1.7	1.7	1.693	1.7	1.7	1.7	1.7	1.7	1.7	1.7	3.06	3.733	3.06	1.7	1.7	3.06	2.38	3.06	1.7	1.7	1.7	3.06	1.7	1.7	1.7	1.7	2.38	1.7	1.7	1.7	1.7	2.38	1.7	1.7	1.7	1.7	3.06	1.7	1.7	1.7	1.7	1.7	1.7	1.7	1.7	1.7	1.7	1.7	1.7	2.38	2.72	1.693	2.38	3.06	1.7	2.38	1.7	1.7	1.7	2.38	2.38	1.7	2.38	1.7	2.707	3.06	1.7	3.06	1.7	2.38	1.7	1.7	1.693	1.7	3.06	1.7	3.733	1.7	1.7	3.06	2.38	1.7	1.7	2.38	1.7	2.38	3.06	2.38	1.7	1.7	3.06	1.7	1.7	1.7	1.693	1.7	1.7	1.7	3.06	1.7	2.38	3.06	3.06	3.06	1.7	3.06	1.7	1.7	1.7	1.7	4.42	1.7	2.38	1.7	4.42	2.72	1.7	1.7	1.7	1.693	1.7	1.693	2.38	2.38	1.7	1.7	1.7	3.06	2.72	1.7	3.06	3.06	1.693	3.06	3.06	2.72	1.7	1.7	2.707	3.06	2.38	1.7	2.707	1.7	3.733	3.733	1.7	1.7	3.06	3.06	2.707	1.7	1.7	1.7	3.06	3.06	1.7	1.7	1.7	3.06	1.7	1.7	3.733	2.707	3.06	1.7	2.38	2.38	1.7	1.7	1.7	3.06	3.06	3.06	1.7	3.06	3.06	1.7	4.42	3.06	3.06	1.7	4.42	3.06	3.06	2.38	1.7	3.06	2.38	4.42	1.7	1.7	1.7	2.707	1.7	1.7	3.06	3.06	3.06	1.7	3.06	4.42	1.693	3.06	3.06	1.7	1.7	4.747	3.06	3.06	2.38	3.407	3.06	1.7	1.7	3.06	3.06	1.7	3.06	3.06	1.7	1.7	1.7	3.06	3.407	1.7	3.06	1.7	2.38	3.06	3.06	1.7	2.707	3.06	1.7	1.7	3.06	3.407	1.7	2.38	1.693	1.7	1.7	3.06	1.7	3.06	2.707	3.06	3.06	2.707	1.7	3.06	1.7	3.06	3.06	1.7	2.707	1.7	1.7	1.7	1.7	1.7	1.7	1.7	1.7	1.7	1.7	2.38	1.7	3.06	1.7	1.7	1.7	3.06	1.7	1.7	1.7	1.7	1.7	1.7	1.7	3.06	1.693	3.06	1.7	3.06	1.7	1.693	1.7	3.06	3.06	3.06
record-426186	3.74	4.678	6.314	4.42	8.032	3.046	8.032	4.42	9.364	8.34	5.67	8.032	6.314	5.091	5.67	7.044	8.032	7.044	8.032	9.364	8.376	4.678	8.032	5.67	6.056	6.056	3.046	0	6.056	5.376	8.34	8.032	7.646	3.74	3.74	3.74	5.376	7.044	6.314	8.34	8.032	8.032	9.364	6.364	8.032	5.376	9.328	7.044	6.056	3.046	3.74	6.056	6.056	8.032	5.67	5.376	3.74	3.74	5.376	6.364	10.316	8.032	8.34	4.682	6.364	3.74	7.044	5.376	3.74	8.032	8.032	3.74	7.044	6.056	8.032	3.74	8.032	11.303	10.316	7.352	3.74	8.032	6.314	3.74	4.682	5.091	3.74	5.67	8.376	6.056	8.032	9.328	8.032	3.74	6.056	8.032	6.658	8.032	8.032	11.303	6.056	8.032	3.74	6.185	5.376	8.634	5.67	4.682	7.646	6.056	8.032	6.185	6.364	8.032	8.032	8.376	8.032	8.032	6.364	7.352	8.032	6.364	7.044	3.74	8.032	6.056	3.74	12.291	6.056	3.74	5.091	4.42	8.032	7.352	8.376	7.044	8.032	9.328	4.42	7.044	6.056	7.646	7.044	9.622	7.646	8.032	8.376	5.091	9.328	9.328	7.044	8.679	4.678	4.42	6.056	7.044	3.046	6.056	7.352	4.42	8.032	3.74	8.032	8.032	8.032	7.71	7.044	5.091	7.044	7.044	6.314	6.056	4.42	7.044	8.032	7.044	4.549	7.044	8.032	8.032	4.678	6.185	8.032	8.34	6.314	8.34	7.044	4.682	7.352	6.056	7.044	9.364	5.67	9.364	4.42	7.044	4.42	5.091	6.056	5.091	8.34	8.032	3.74	6.056	9.364	8.032	5.091	8.032	6.056	3.694	5.091	7.044	3.74	5.376	6.364	8.032	6.056	3.74	6.056	8.34	5.67	5.67	8.032	5.376	8.34	5.376	9.364	6.364	5.376	7.044	6.056	5.376	6.364	7.044	4.682	3.74	7.646	9.364	3.74	6.056	7.352	3.74	5.091	5.091	6.364	3.74	3.74	8.34	3.74	8.376	8.34	8.032	9.364	8.032	6.056	3.74	5.376	6.364	5.376	9.328	7.044	9.364	10.316	8.34	5.376	8.679	3.74	9.364	5.376	3.74	6.364	3.74	8.032	3.74	6.364	7.044	7.044	7.352	9.364	5.376	6.314	8.032	8.032	6.056	6.185	8.032	3.74	7.044	8.032	7.044	7.352	8.032	6.364	6.314	10.316	8.032	3.74	5.67	3.74	5.67	3.74	6.658	4.682	6.364	6.314	4.682	8.032	3.046	3.74	3.74	8.376	8.376	5.376	8.032	7.646	7.646	8.032	8.032	8.34	5.091	8.032	4.682	7.352	8.032	9.328	8.032	3.74	8.032	9.328	5.091	9.328	8.032	4.678	5.67	8.032	8.032	8.032	7.044	6.364	9.328	8.032	8.032	6.658	6.056	9.328	5.091	6.658	8.032	10.316	8.34	8.032	9.364	3.74	3.74	8.34	6.364	4.42	6.056	8.032	6.056	5.376	8.032	8.032	8.032	3.74	7.044	7.044	4.42	3.74	7.044	6.056	3.74	7.352	8.032	3.74	10.008	8.032	8.032	7.352	6.364	6.364	8.34	7.044	8.032	9.02	9.328	8.032	10.008	8.34	8.032	7.044	8.376	6.056	6.056	8.032	8.032	3.74	8.032	8.032	8.032	9.364	8.032	8.032	9.328	8.032	8.032	7.352	7.044	6.056	8.032	3.74	5.67	8.032	9.364	3.74	8.032	8.032	8.032	9.328	8.032	7.044	9.364	8.032	6.056	7.044	3.74	8.34	8.032	4.678	8.032	8.376	8.032	9.328	8.032	8.032	8.032	4.42	8.032	6.658	7.044	6.056	9.364	9.328	8.032	8.032	8.032	9.364	6.658	5.67	9.364	9.364	6.364	4.682	3.74	6.658	6.056	6.658	5.091	5.376	8.032	6.364	7.044	5.67	5.376	6.364	4.678	5.67	8.032	4.678	6.056	4.682	4.42	6.056	6.364	3.046	5.091	8.032	6.056
record-431328	6.12	8.048	9.543	4.024	6.12	5.44	6.12	6.8	6.12	8.023	8.476	6.12	9.543	7.265	8.429	9.212	6.12	7.796	6.12	6.12	8.465	8.048	6.12	8.476	8.183	10.167	6.064	7.34	0	8.248	6.12	6.12	6.12	8.373	6.12	6.425	8.476	9.212	8.468	9.347	6.12	6.12	6.12	8.409	6.12	5.673	6.12	9.212	10.167	6.008	7.039	9.475	8.183	6.12	8.476	8.215	5.443	6.12	7.039	5.673	6.12	6.12	6.12	6.812	5.673	7.956	8.796	5.673	9.347	6.12	5.335	8.089	9.212	8.797	6.12	8.569	6.12	6.12	6.12	6.12	9.347	6.12	9.543	7.039	7.152	7.34	9.347	7.039	10.46	8.797	6.12	6.12	6.12	6.12	7.879	6.12	7.956	6.12	6.12	6.12	9.487	6.12	9.347	6.199	6.472	6.12	7.039	7.152	6.12	8.183	6.12	6.199	7.116	6.12	6.12	10.46	6.12	6.12	7.116	8.033	6.12	6.436	9.212	6.12	6.12	10.167	6.12	6.12	8.183	6.12	6.585	6.008	6.12	6.12	10.46	9.1	6.12	6.12	6.008	9.212	7.503	6.647	10.392	6.12	6.539	6.12	10.46	7.34	6.12	9.053	9.212	8.033	5.44	6.008	7.503	10.88	5.384	7.503	8.136	5.44	6.12	6.12	6.12	6.12	6.12	7.116	9.1	7.34	9.212	9.212	9.487	8.797	6.008	9.212	6.12	9.212	4.704	8.42	6.12	6.12	8.048	6.199	6.12	6.12	9.543	6.12	11.084	7.559	6.12	8.797	9.212	6.12	8.476	6.12	6.8	9.212	6.8	7.34	8.797	7.34	6.12	6.12	6.12	9.487	6.12	6.12	7.34	6.12	8.797	6.641	7.34	9.212	6.425	6.812	6.12	6.12	4.772	7.683	7.879	6.12	7.039	8.353	6.12	7.039	6.12	5.673	6.12	8.569	8.569	9.212	8.797	7.492	6.12	9.212	7.559	6.12	9.053	6.12	9.347	8.797	6.12	6.425	7.34	5.281	7.956	6.12	6.12	6.12	9.347	8.921	6.12	6.12	6.12	6.12	8.797	8.429	7.152	5.673	9.212	6.12	9.212	6.12	6.12	6.12	7.039	8.033	6.12	6.12	7.152	6.12	5.673	6.12	6.12	8.296	6.12	9.212	7.796	6.12	6.12	7.228	9.543	6.12	6.12	4.772	5.188	6.12	6.12	9.212	6.12	7.796	5.673	6.12	6.12	8.468	6.12	6.12	6.12	5.673	8.429	7.039	6.12	6.12	7.492	5.673	9.543	7.559	6.12	6.064	8.089	8.429	10.46	10.46	5.673	6.12	6.12	6.12	6.12	6.12	6.12	7.265	6.12	7.559	6.12	6.12	6.12	6.12	6.12	6.12	6.12	7.84	6.12	6.12	5.384	7.039	6.12	6.12	6.12	9.212	5.673	6.12	6.12	6.12	6.12	8.797	6.12	5.961	6.12	6.12	6.12	6.12	6.12	6.12	6.12	6.12	5.621	6.12	4.024	7.503	6.12	7.776	7.152	6.12	6.12	6.12	6.12	9.212	9.212	6.8	6.12	9.212	6.879	6.12	7.837	6.12	8.089	7.456	6.12	6.12	6.12	7.605	6.436	7.379	7.796	6.12	8.429	6.12	6.12	9.347	6.12	6.12	9.212	10.46	8.797	8.797	6.12	6.12	6.765	7.605	6.12	6.12	6.12	6.12	6.12	6.12	6.12	6.12	8.296	9.212	8.797	6.12	8.481	7.577	6.12	6.12	6.12	6.12	6.12	6.12	6.12	6.12	9.212	6.12	6.12	9.487	9.212	6.199	6.12	6.12	8.048	6.12	10.46	6.12	6.12	6.12	6.12	6.12	5.44	6.12	6.12	8.976	9.487	6.12	6.12	6.12	6.12	6.12	6.12	6.12	8.369	6.12	6.12	5.673	7.559	8.373	6.12	8.797	6.12	7.34	6.12	6.12	7.379	9.212	8.476	7.568	5.508	6.008	8.476	6.12	6.188	5.519	7.559	6.8	8.797	6.12	7.211	7.34	6.12	10.167
record-431449	8.16	7.14	13.104	9.86	16.688	7.14	16.688	7.14	16.688	17.686	13.968	16.688	13.104	12.126	13.968	14.896	16.688	14.896	16.688	16.688	14.896	7.14	16.688	13.968	13.104	13.104	7.14	12.126	13.104	0	15.455	16.688	17.552	11.683	8.16	10.843	10.079	14.896	13.104	15.76	16.688	16.688	16.688	12.176	16.688	10.384	17.552	14.896	13.104	7.14	10.002	13.104	13.104	16.688	13.968	10.079	9.161	8.16	10.384	12.176	8.16	16.688	15.115	14.072	12.176	10.843	14.896	10.384	11.683	16.688	16.688	8.16	14.896	13.104	16.688	10.843	16.688	8.16	8.16	13.968	11.683	16.688	13.104	10.002	14.072	12.126	11.683	13.968	14.896	13.104	16.688	17.552	16.688	8.16	13.104	16.688	19.682	16.688	16.688	8.16	13.104	16.688	11.683	12.925	10.384	8.16	17.89	14.072	17.552	13.104	16.688	12.925	12.176	16.688	16.688	14.896	16.688	16.688	12.176	13.968	16.688	12.176	14.896	8.16	16.688	13.104	8.16	8.16	13.104	8.16	12.126	7.14	16.688	13.968	14.896	14.896	16.688	17.552	9.86	14.896	13.104	10.002	14.896	8.16	17.552	16.688	14.896	12.126	17.552	19.478	14.896	16.509	7.14	9.86	13.104	14.896	7.14	13.104	13.968	9.86	16.688	8.16	16.688	16.688	16.688	14.717	14.896	12.126	14.896	14.896	13.104	13.104	10.521	14.896	16.688	14.896	7.14	14.896	16.688	16.688	7.14	12.925	16.688	15.76	13.104	15.76	14.896	14.072	13.968	13.104	14.896	16.688	13.968	16.688	7.14	14.896	9.86	12.126	13.104	12.126	15.76	16.688	8.16	13.104	16.688	16.688	12.126	16.688	13.104	12.28	12.126	14.896	10.002	10.384	12.176	16.688	13.104	8.16	13.104	15.455	13.968	13.968	16.688	10.384	15.76	10.384	16.688	12.176	10.384	14.896	13.104	9.739	12.176	14.896	14.072	8.16	19.921	16.688	11.683	13.104	13.968	10.002	12.126	11.133	12.176	8.16	8.16	15.76	11.683	14.896	15.76	16.688	16.688	16.688	13.104	10.843	10.079	12.176	10.384	17.552	14.896	16.688	8.16	15.76	10.384	16.509	8.16	16.688	10.079	8.16	12.176	8.16	16.688	10.843	12.176	14.896	14.896	13.968	16.688	10.384	13.104	16.688	16.688	13.104	12.925	16.688	8.16	14.896	16.688	14.896	13.968	16.688	12.176	13.104	8.16	16.688	8.16	13.968	10.843	17.89	8.16	15.76	14.072	12.176	13.104	14.072	16.688	7.14	8.16	10.843	14.896	14.896	10.384	16.688	17.552	17.552	16.688	16.688	15.76	12.126	16.688	14.072	13.968	16.688	17.552	16.688	8.16	16.688	17.552	12.126	17.552	16.688	7.14	13.968	16.688	16.688	16.688	14.896	12.176	17.552	16.688	16.688	15.76	13.104	17.552	12.126	15.76	16.688	8.16	15.76	16.688	16.688	8.16	8.16	15.455	12.176	7.14	13.104	16.688	13.104	10.384	16.688	16.688	16.688	8.16	14.896	14.896	7.14	8.16	14.896	13.104	8.16	13.968	16.688	8.16	8.16	16.688	16.688	13.968	12.176	12.176	15.76	14.896	16.688	10.843	17.552	16.688	11.683	15.76	16.688	14.896	14.896	13.104	13.104	16.688	16.688	8.16	16.688	16.688	16.688	16.688	16.688	16.688	17.552	16.688	16.688	13.968	14.896	13.104	16.688	11.683	13.968	16.688	16.688	8.16	16.688	16.688	16.688	17.552	16.688	14.896	16.688	16.688	13.104	14.896	8.16	15.76	16.688	7.14	16.688	14.896	16.688	17.552	16.688	16.688	16.688	7.14	16.688	15.76	14.896	13.104	16.688	17.552	16.688	16.688	16.688	16.688	15.76	13.968	16.688	16.688	12.176	14.072	11.683	15.76	13.104	15.76	12.126	9.739	16.688	12.176	14.896	13.968	10.079	14.102	7.14	13.968	16.688	7.14	13.104	14.072	9.86	13.104	12.176	7.14	12.126	16.688	13.104
record-431467	5.1	4.76	6.672	6.12	7.564	4.76	7.564	4.76	7.564	6.358	5.888	7.564	6.672	6.555	6.255	7.118	7.564	7.118	7.564	7.564	6.932	4.76	7.564	6.255	7.001	6.672	4.76	6.532	6.486	4.786	0	7.564	7.147	7.381	5.1	6.884	4.106	7.118	6.672	7.33	7.564	7.564	7.564	4.892	7.893	4.446	7.097	7.118	6.672	4.76	6.438	6.672	7.001	7.564	6.255	4.106	5.466	5.1	4.446	5.758	8.01	7.564	5.784	5.622	5.758	6.884	7.118	4.446	7.33	7.564	7.564	5.1	7.118	6.672	7.564	6.884	7.564	8.457	8.01	6.204	7.33	7.564	6.672	6.438	5.809	6.532	7.33	6.255	7.118	6.672	7.564	7.097	7.564	5.1	6.672	7.564	6.884	7.564	7.564	8.281	6.672	7.564	7.33	6.149	4.786	7.777	6.438	5.809	7.147	7.001	7.564	6.149	5.758	7.564	7.564	7.118	7.564	7.564	5.758	6.204	7.564	5.758	7.118	5.1	7.564	6.672	7.777	7.777	7.001	5.1	6.532	4.76	7.564	6.204	7.118	7.447	7.564	7.097	6.12	7.118	6.672	6.489	7.118	5.1	7.147	7.893	7.118	6.532	7.777	7.381	7.118	7.041	4.76	6.12	6.672	7.118	4.76	6.672	6.843	6.12	7.564	7.777	7.564	7.564	7.564	6.595	7.447	6.532	7.118	7.118	6.672	6.672	6.449	7.118	7.564	7.118	4.76	7.118	7.564	7.564	4.76	6.149	7.893	6.65	6.672	6.65	7.118	5.809	6.204	6.672	7.118	7.564	6.255	7.564	4.76	7.118	6.12	6.532	6.672	6.532	6.124	7.564	5.1	6.672	7.564	7.564	6.532	7.564	6.672	5.363	6.532	7.118	5.912	4.446	4.892	8.211	6.814	5.1	6.672	5.444	6.255	6.068	7.564	4.446	6.65	4.446	7.564	5.758	4.446	7.118	6.672	4.446	4.892	7.118	5.809	7.777	7.381	7.564	7.33	6.672	5.338	5.912	6.532	5.703	4.892	5.1	5.1	7.378	7.33	7.118	6.65	7.564	7.564	7.564	6.672	6.884	4.106	5.758	5.312	7.097	7.118	7.564	8.01	6.65	4.446	7.041	5.1	7.564	4.106	5.1	5.758	5.1	7.564	6.884	5.572	7.118	7.118	6.204	7.564	4.446	6.672	7.564	7.564	6.31	5.962	7.564	5.1	7.118	7.564	7.118	6.204	7.564	4.892	6.672	7.543	7.564	5.1	6.255	6.884	6.438	7.777	6.701	5.622	5.758	6.672	5.809	7.564	4.76	5.073	6.884	7.118	7.118	4.446	7.564	7.147	7.777	7.564	7.564	6.65	6.555	7.564	5.809	5.338	7.564	7.097	7.564	5.1	7.564	7.097	6.532	8.01	7.564	4.76	6.255	7.564	7.564	7.564	7.118	5.758	7.777	7.564	7.564	6.701	6.672	7.097	6.532	6.701	7.564	8.01	6.65	7.564	7.564	5.1	5.1	5.444	4.892	4.76	6.672	7.564	7.001	4.786	7.564	7.564	7.564	5.1	7.118	7.118	4.76	8.223	7.118	6.672	5.1	6.255	7.564	5.1	8.281	7.564	7.564	6.204	5.758	5.758	6.464	7.118	7.564	6.884	7.097	7.564	7.33	6.65	7.564	7.118	7.118	6.672	6.672	7.564	7.564	5.1	7.564	7.564	7.564	7.564	7.564	7.564	7.097	7.564	7.564	6.884	7.118	6.672	7.564	7.381	6.255	7.893	7.564	7.777	7.564	7.564	7.564	7.097	7.564	7.118	7.564	7.564	6.672	7.118	5.1	6.65	7.564	4.76	7.564	7.118	7.564	7.777	7.564	7.564	7.564	4.76	7.564	6.701	7.447	6.672	7.564	7.777	7.893	7.564	7.564	7.564	6.701	6.228	7.564	7.564	5.758	5.809	7.381	6.701	6.672	6.701	6.532	4.446	7.564	5.725	7.118	6.255	4.106	5.466	4.76	6.255	7.893	3.713	6.497	5.809	6.12	6.672	5.758	4.76	6.532	7.564	6.672
record-431573	23.299	12.58	13.564	12.58	14.888	12.536	14.888	12.58	14.888	16.516	13.427	13.582	13.564	12.902	9.228	14.226	13.464	9.434	14.888	13.464	12.164	12.58	13.464	14.182	13.564	13.564	12.536	12.902	11.502	18.192	17.752	0	15.506	17.678	13.836	11.9	21.218	12.802	8.432	14.87	13.804	14.888	14.888	16.768	13.464	19.792	24.263	14.226	13.564	12.536	11.28	12.48	13.564	14.888	14.182	12.884	11.28	11.9	13.014	13.546	15.55	13.804	16.516	11.796	13.546	11.9	9.094	19.792	19.591	13.464	10.096	11.935	14.226	13.564	13.464	15.883	13.464	16.473	14.126	14.208	27.007	9.756	13.564	15.883	12.103	12.902	19.591	13.436	14.226	12.14	13.464	21.731	14.888	11.935	8.432	13.464	10.231	14.888	14.888	14.588	13.564	13.464	19.591	8.432	12.993	11.555	9.568	12.136	10.893	13.564	14.888	12.172	13.546	14.888	14.888	14.226	13.804	15.339	13.546	14.208	10.096	13.546	14.226	15.79	14.888	13.564	12.082	16.875	13.564	22.672	11.818	12.58	14.888	14.208	14.226	14.226	14.888	15.532	12.58	14.226	12.48	14.452	13.142	16.83	15.506	14.888	14.226	12.902	15.532	15.532	14.226	13.496	12.58	13.03	14.014	14.226	12.536	14.014	16.431	12.58	14.888	17.325	14.888	15.339	15.339	12.834	14.226	12.902	14.226	14.226	13.564	13.564	13.03	14.226	15.339	14.226	11.188	14.677	14.888	14.888	12.58	12.172	14.888	14.87	13.564	17.135	14.226	13.52	16.473	13.564	14.226	13.464	13.096	14.888	12.58	12.802	12.58	12.902	13.564	12.902	16.516	14.888	18.424	13.564	14.888	13.804	12.902	14.888	13.564	12.858	11.478	14.226	11.9	14.065	15.887	20.219	10.472	19.591	8.432	18	13.096	12.458	14.888	13.014	18.347	13.014	13.464	13.546	13.014	14.226	13.564	17.052	13.677	14.226	13.52	16.882	14.09	14.888	19.591	13.564	15.39	11.9	12.902	11.51	13.677	27.007	27.007	12.826	28.293	12.802	20.505	14.888	14.888	14.888	13.564	19.591	15.765	13.546	14.944	15.532	12.802	14.888	15.55	26.978	13.014	13.289	13.174	14.888	15.765	16.223	13.546	23.299	14.888	19.591	18.899	14.226	9.434	19.843	14.888	14.065	13.564	9.756	14.888	10.472	11.39	14.888	23.299	14.226	14.888	9.434	15.883	14.888	13.677	8.432	28.302	13.464	12.512	14.182	15.883	14.182	14.176	13.428	8.566	13.546	13.564	13.52	13.464	11.79	23.299	15.883	14.226	14.226	17	14.888	14.43	13.782	13.464	9.756	14.64	11.478	13.464	13.52	16.549	14.888	21.731	14.888	16.223	14.888	15.532	11.818	14.466	14.888	7.788	11.428	14.888	14.888	14.888	14.226	13.546	15.532	13.464	14.888	14.844	13.564	27.64	8.11	14.844	14.888	14.136	16.627	13.464	14.888	22.672	13.174	14.87	13.546	11.156	14.014	14.888	12.067	14.405	9.756	13.464	13.804	15.79	14.226	14.226	12.58	14.176	14.226	8.772	23.639	9.568	13.464	16.223	13.12	14.888	14.888	16.223	13.546	13.546	18.092	9.434	14.888	16.001	15.532	14.888	17.222	15.393	14.888	14.226	14.226	13.564	13.564	13.804	14.888	11.9	16.089	13.804	14.888	14.888	14.888	14.888	15.532	13.804	13.804	14.208	14.226	13.564	14.888	12.082	13.436	13.804	14.888	11.9	14.888	14.888	14.888	15.532	15.339	14.226	14.888	13.804	13.564	14.226	11.9	17.135	14.888	12.58	14.888	14.226	14.888	15.532	14.888	15.339	14.888	12.58	14.888	12.09	14.677	13.564	14.888	15.532	14.888	14.888	14.888	14.888	14.844	12.788	14.888	14.888	13.546	13.52	13.971	14.844	13.564	14.844	12.902	12.884	9.756	13.546	12.802	14.182	15.765	13.546	12.805	14.182	13.464	12.58	10.472	13.52	12.58	12.14	15.736	12.536	12.902	15.339	13.564
record-431593	4.44	4.42	4.688	4.3	5.296	3.751	5.296	4.42	5.176	3.453	4.119	4.216	4.688	4.431	3.299	4.872	4.216	3.772	5.296	4.216	4.005	4.42	4.216	4.339	4.628	4.688	3.751	4.431	3.701	4.008	4.953	5.176	0	4.763	4.416	3.68	4.041	3.912	3.128	4.92	4.556	5.296	5.296	4.352	4.216	3.421	5.011	4.992	4.288	3.751	3.2	3.948	4.628	5.296	4.339	4.041	3.2	3.74	3.421	4.379	5.48	5.176	4.413	3.568	4.379	3.68	3.432	3.421	3.96	4.216	4.696	3	4.872	4.088	4.216	3.48	4.216	3.74	4.52	4.683	4.92	3.736	4.688	3.48	3.475	4.431	3.96	4.119	4.992	3.608	4.216	5.224	5.296	3	3.128	4.216	3.943	5.176	5.296	4.792	4.568	4.216	4.06	3.128	3.421	3.74	3.639	3.908	4.247	4.628	5.036	4.148	4.312	5.296	4.696	4.992	4.556	4.896	4.312	4.616	4.216	4.312	4.992	3.74	4.696	4.688	3.74	3.74	4.628	5.916	3.977	4.42	5.296	4.616	4.992	4.932	5.036	5.224	4.42	4.992	3.948	4.927	4.252	3.74	4.947	5.036	4.992	4.431	5.224	5.224	4.732	4.756	4.42	4.02	4.288	4.992	3.751	4.288	4.616	4.42	5.296	3.74	5.296	4.896	4.896	4.452	4.932	4.431	4.992	4.992	4.688	4.688	4.02	4.992	4.896	4.992	3.88	4.592	5.296	5.296	4.42	4.148	5.236	4.92	4.688	4.92	4.992	4.035	4.616	4.688	4.992	4.096	3.779	4.696	4.42	3.912	4.3	4.431	4.088	4.431	3.793	5.296	5.436	4.428	5.296	4.556	4.431	4.696	4.568	3.731	3.304	4.872	3.68	3.421	3.725	3.96	3.701	3.96	3.128	4.953	3.779	3.872	4.696	3.421	4.563	3.421	4.216	4.379	3.421	4.992	4.688	4.008	3.725	4.992	4.035	4.44	4.28	4.696	3.96	4.568	4.029	3.68	4.431	4.177	3.725	4.92	4.92	4.309	5.752	3.42	5.267	5.176	5.296	5.176	4.688	4.06	4.041	4.379	3.981	5.291	3.912	4.696	4.893	3.96	3.421	4.216	4.112	5.176	4.041	3.68	4.379	5.272	5.176	3.96	3.325	4.872	4.392	4.743	5.296	3.421	4.688	3.736	4.696	3.701	3.701	5.296	4.44	4.872	5.296	4.392	3.48	5.176	3.725	3.128	6.248	4.216	4.488	4.245	3.36	4.245	3.74	3.976	2.995	4.379	4.688	4.035	4.216	3.637	4.32	3.36	4.392	4.732	3.421	5.176	4.62	4.48	4.216	3.736	4.753	3.304	4.216	4.035	4.029	5.296	5.224	5.036	3.68	5.296	5.224	3.784	4.86	5.176	3.82	3.979	5.176	4.696	5.176	4.992	4.379	5.291	4.216	5.176	4.563	4.688	5.944	3.164	4.563	5.296	4.753	5.127	4.216	5.296	3.74	4.112	5.093	4.352	3.34	4.288	5.176	4.088	3.421	3.736	4.216	4.556	3.74	4.992	4.992	4.42	3.74	4.992	3.468	3.74	3.679	4.216	3.74	3.74	5.036	5.296	3.36	4.312	4.312	4.28	3.772	5.176	5.2	6.124	5.036	3.74	5.093	5.036	4.992	4.392	4.688	4.688	4.556	5.176	3.74	4.556	5.176	5.296	5.296	5.296	5.296	5.224	4.556	4.556	4.616	4.732	4.688	5.036	3.74	4.159	4.556	5.296	3.74	5.296	5.036	5.296	5.224	4.896	4.992	5.296	4.556	4.688	4.992	4.26	4.92	5.296	4.42	5.296	4.992	5.296	5.224	5.296	4.896	5.296	4.42	5.296	4.283	4.592	4.688	5.296	5.224	5.236	5.296	5.296	5.296	4.643	3.979	5.176	5.176	4.379	4.035	4.283	4.643	4.568	4.563	4.431	4.008	3.736	4.312	3.912	4.339	4.041	4.379	4.1	4.339	4.216	4.16	3.608	4.035	3.82	3.608	4.285	3.751	4.431	5.176	4.688
record-431690	3.087	2.471	3.109	2.98	3.579	3.06	3.279	2.435	3.212	2.303	2.743	2.789	2.995	2.292	2.356	2.797	2.789	3.395	4.189	2.789	2.307	2.791	2.789	3.229	2.489	2.687	3.06	3.28	2.687	2.687	3.081	2.995	2.789	0	1.789	2.489	2.988	2.592	2.075	2.687	3.141	4.189	3.784	2.6	2.751	2.687	2.789	3.572	2.9	2.6	2.292	2.687	2.489	4.189	3.043	2.292	1.968	3.027	2.292	3.059	3.504	3.429	2.88	2.459	2.083	2.489	2.272	2.648	2.947	2.789	3.109	2	2.987	2.592	2.789	2.749	2.789	3.6	2.987	3.256	3.587	2.469	3.504	2.339	2.205	3.232	2.947	2.632	4.173	2.395	2.789	3.381	3.769	2	2.075	2.789	2.489	3.881	3.192	2.889	3.035	2.789	2.395	1.545	2.395	2.884	2.292	3.059	3.564	2.489	3.468	2.352	2.549	3.769	3.109	3.572	3.129	3.449	2.549	2.747	2.789	3.312	3.141	3.564	3.109	2.747	2.884	3.271	2.489	3.129	2.537	2.297	3.769	3.509	3.952	2.747	3.449	3.06	2.435	3.892	2.735	2.292	3.384	2.747	2.632	2.884	3.952	3.28	2.884	2.687	3.252	2.747	3.027	3	3.075	2.884	3.027	3.075	2.489	2.632	3.789	2.884	3.141	3.469	3.081	2.549	2.687	3.28	3.081	3.912	3.395	3.28	2.435	3.081	3.279	3.992	2.297	3.272	3.279	3.279	2.297	2.352	2.884	3.707	2.884	3.767	2.884	3.081	3.569	3.795	3.992	2.477	2.403	2.864	2.151	2.592	2.98	2.944	2.715	3.232	2.62	3.279	2.747	3.055	4.109	3.129	3.28	2.987	3.035	2.944	2.197	2.864	2.165	2.608	3.109	2.64	2.489	2.423	2.075	2.995	2.403	2.687	3.109	2.292	2.429	2.648	2.789	2.489	2.489	3.992	3.795	3.288	2.845	3.307	2.6	1.912	2.2	3.137	2.947	3.035	3.283	2.165	2.715	2.155	2.489	3.28	3.28	3.043	2.873	2.592	3.233	3.429	3.789	3.721	3.307	2.356	2.797	3.339	2.348	2.852	2.592	3.109	3.431	2.64	2.648	2.26	1.592	3.335	2.948	2.972	3.059	2.592	3.429	2.536	2.205	3.232	2.912	1.715	4.149	3.167	3.755	2.469	3.109	2.6	2.119	3.661	2.96	3.232	3.899	2.912	2.32	3.429	2.845	2.075	3.469	2.789	2.692	2.64	2.749	2.292	2.951	2.493	1.885	3.059	2.797	3.381	2.628	2.24	2.96	2.749	2.6	3.184	2.648	3.429	3.061	2.971	2.789	2.469	2.872	2.159	2.789	2.6	3.043	3.579	3.381	3.381	2.972	3.381	3.381	2.083	3.663	3.429	2.151	2.632	3.429	3.109	3.429	3.635	3.059	2.971	2.789	3.429	2.92	2.908	2.96	2.837	2.864	3.701	3.381	2.864	2.789	3.824	3.564	1.592	2.435	2.757	2.34	3.307	3.429	2.676	2.728	2.469	2.789	3.129	3.564	3.876	3.572	3.74	3.361	3.627	2.352	3.087	2.735	2.789	2.692	2.829	3.987	4.189	2.537	3.091	3.312	2.944	2.549	3.429	2.489	2.932	3.449	3.073	3.3	3.449	3.572	2.912	3.375	3.695	3.129	3.429	2.632	2.972	3.429	3.279	4.109	3.769	3.769	3.367	3.129	3.129	2.489	3.252	3.795	3.279	2.687	3.055	3.091	4.149	2.884	3.279	3.449	2.999	3.06	3.469	3.572	4.149	3.129	3.395	3.476	2.352	2.604	4.089	2.435	3.789	3.952	3.789	2.884	3.789	3.469	3.081	3.74	3.081	2.96	2.687	2.687	4.149	2.884	2.884	3.279	3.081	4.149	3.427	2.763	2.995	2.995	3.059	3.032	1.6	3.427	3.035	2.675	3.109	3.115	2.469	2.632	2.592	3.229	2.687	1.968	1.751	3.267	2.751	2.608	2.205	2.477	2.66	2.395	2.545	2.831	2.549	3.429	2.687
record-431958	2.28	2.664	3.156	2.872	3.54	4.496	4.836	4.76	2.904	1.94	3.18	2.708	4.836	2.948	1.732	2.916	2.708	2.412	5.252	2.708	2.576	2.872	2.708	4.452	4.332	4.836	4.792	4.46	2.628	4.668	4.08	3.124	2.708	2.368	0	3.576	4.028	2.5	1.524	4.648	3.388	5.252	5.252	2.708	2.708	3.348	2.708	4.716	3.652	3.78	2.808	2.972	4.332	5.252	3.156	3.488	2.808	4.08	2.808	2.808	3.572	3.364	2.74	2.628	1.732	3.576	1.732	3.348	2.532	2.708	3.156	1.656	2.916	2.5	2.708	2.324	2.708	3.156	2.916	2.62	2.948	1.94	4.836	2.324	2.292	4.46	2.532	3.18	3.572	2.292	2.708	3.332	4.924	1.656	1.524	2.708	2.62	3.364	3.332	2.072	2.948	2.708	2.292	1.524	2.292	2.98	2.412	2.74	4.08	4.332	4.156	3.564	3.772	4.924	3.156	4.716	3.388	4.068	3.772	3.98	2.708	3.092	5.044	4.08	3.156	4.836	4.08	4.08	4.332	3.388	2.764	4.76	4.836	4.068	5.044	4.54	4.156	4.08	4.76	5.044	2.972	4.08	3.18	3.3	4.08	4.156	5.044	4.46	4.08	4.08	3.948	3.98	4.76	3.576	3.652	4.628	4.168	3.652	4.08	4.344	4.836	4.08	5.252	4.068	4.068	3.772	4.54	4.46	5.044	5.044	4.42	4.46	3.576	5.044	4.068	5.044	3.488	3.86	5.252	5.252	4.76	3.564	4.748	4.08	4.836	4.08	5.044	4.244	4.08	4.836	5.044	2.148	2.5	2.356	2.216	2.5	2.872	4.46	2.74	4.46	2.28	4.924	2.62	3.74	5.252	3.388	4.46	2.916	2.948	4.036	2.084	2.356	3.576	2.628	3.156	2.532	2.628	2.072	1.524	3.124	2.5	2.836	3.156	2.808	3.136	2.808	2.708	2.808	2.808	5.044	4.836	3.988	3.576	3.364	2.708	2.16	2.28	3.156	2.532	2.948	3.156	3.576	2.74	3.356	3.576	2.948	2.948	3.044	2.948	2.5	2.74	3.364	4.836	3.364	4.836	2.292	2.916	2.532	2.324	3.332	2.5	3.156	2.948	2.532	2.808	2.708	1.392	3.364	3.308	2.664	3.348	2.5	3.364	2.532	2.292	3.156	2.948	1.952	5.252	2.74	4.836	1.94	3.156	2.628	2.628	5.252	2.62	3.156	4.924	2.948	2.324	3.364	3.576	1.524	2.948	2.708	1.864	2.532	2.324	3.348	2.564	2.072	1.524	3.092	2.916	4.244	2.148	1.996	2.74	2.324	2.708	3.124	2.412	3.364	2.564	4.08	2.708	1.94	2.564	2.084	2.708	2.488	4.08	3.54	3.332	3.332	2.664	3.332	3.332	1.732	3.54	3.364	2.216	3.092	3.364	3.156	3.364	5.044	3.18	4.08	2.708	3.364	3.156	4.42	2.74	2.74	2.356	3.78	3.332	2.356	2.708	3.78	4.08	1.392	3.488	4.08	2.216	3.652	3.364	2.74	3.308	1.94	2.708	3.388	4.08	3.572	4.716	4.76	2.96	3.572	2.204	2.96	2.972	2.708	2.544	4.08	4.156	5.252	2.764	3.388	3.092	3.892	2.412	3.364	4.08	3.18	4.156	3.08	4.08	4.156	4.716	2.948	4.508	4.836	3.388	3.364	4.08	2.664	3.364	5.252	5.252	4.924	4.836	3.08	3.388	3.388	4.08	3.948	4.836	4.156	4.08	3.476	3.388	5.252	4.08	4.924	4.156	4.264	4.08	4.068	4.716	5.252	3.388	4.42	5.044	2.884	3.848	5.252	4.76	4.836	5.044	4.836	4.08	4.836	4.068	5.252	4.76	5.252	3.3	3.86	4.42	5.252	4.08	4.748	5.252	5.252	5.252	4.66	3.092	3.124	3.124	2.808	4.244	1.6	4.66	2.948	2.356	4.46	4.08	1.94	3.18	2.5	4.452	3.308	2.808	2.084	4.452	2.708	4.496	2.292	2.148	2.664	2.292	2.532	3.576	4.46	3.364	4.836
record-432059	3.4	4.053	4.407	2.387	3.4	2.72	4.813	2.72	3.4	2.727	3.707	3.4	4.407	3.08	3.427	3.4	3.4	3.087	3.4	4.467	2.98	4.053	3.78	4.087	3.427	3.773	3.4	4.06	2.28	3.773	4.067	3.4	3.4	3.413	3.4	0	2.373	3.4	4.367	3.393	4.447	3.4	3.4	3.06	4.12	2.033	3.4	3.4	3.753	2.733	2.02	3.773	3.427	3.4	4.087	2.36	1.227	2.393	2.02	2.34	3.4	3.4	3.4	2.34	2.34	2.367	3.4	2.033	3.033	3.4	1.353	3.087	3.4	3.4	3.4	2.687	3.4	4.173	3.4	3.047	3.033	3.4	4.407	2.02	2.573	3.74	3.373	2.28	3.4	3.4	3.4	3.4	3.4	3.4	3.4	4.813	2.367	4.467	3.4	3.4	3.433	3.4	3.713	3.02	2.373	4.12	2.02	2.573	3.4	3.427	4.467	3.06	3.027	3.4	3.4	3.4	3.4	3.78	3.027	3.373	3.4	3.027	4.447	3.78	3.4	3.753	3.973	4.12	3.427	3.4	2.74	2.707	3.4	3.78	3.4	3.753	3.4	3.4	2.72	3.4	3.087	2.933	4.12	3.433	2.74	4.12	3.4	4.06	4.12	3.773	3.4	3.753	2.72	2.733	3.087	4.12	3.267	3.087	3.427	2.72	3.4	4.12	4.447	3.78	4.467	3.407	3.773	3.4	4.467	3.4	3.433	4.06	2.72	4.467	4.813	3.4	2.707	3.433	4.813	4.813	2.707	3.06	4.12	3.4	4.12	3.4	4.12	4.467	4.427	3.4	3.4	3.42	4.087	4.447	4.773	3.4	4.08	4.1	3.4	4.467	3.4	4.813	3.4	3.433	3.4	3.4	4.06	3.4	3.4	4.02	4.793	3.4	1.7	2.033	2.38	4.467	2.24	2.387	3.4	3.4	2.28	3.033	3.4	2.02	3.4	2.033	3.4	2.687	2.033	3.4	3.4	2.713	2.38	3.4	3.74	4.12	3.713	4.793	3.033	3.4	2.727	1.7	4.06	2.713	2.367	4.173	4.173	3.393	3.393	2.573	3.4	3.4	3.4	4.447	3.4	3.047	2.373	2.34	3.733	3.633	3.4	3.4	3.78	2.98	2.033	3.753	3.78	3.4	2.373	2.38	2.34	3.4	3.4	2.707	2.74	3.4	3.4	4.067	3.4	2.033	4.407	3.4	3.4	2.28	1.353	3.4	4.027	3.4	3.4	3.4	2.34	3.4	2.38	4.367	3.4	3.4	3.4	2.34	3.027	2.02	4.12	3.4	3.38	2.34	4.407	3.74	4.467	3.32	3.027	3.027	3.4	3.4	2.033	3.4	3.78	3.06	3.4	3.4	4.813	3.08	3.4	3.74	2.727	3.4	3.4	3.4	2.38	3.4	3.4	4.047	3.4	3.4	2.727	2.28	3.4	3.4	4.813	3.4	2.34	3.06	3.4	3.4	3.4	3.407	3.4	2.733	3.4	3.4	3.4	3.4	3.4	3.4	4.173	3.4	1.693	2.74	2.387	3.087	3.4	3.027	2.373	3.4	3.4	3.4	3.78	3.4	3.4	4.44	4.467	3.4	3.08	3.4	3.087	3.78	2.707	3.087	3.4	3.4	3.087	2.74	3.027	2.36	3.78	3.4	3.047	3.4	3.4	3.773	3.433	3.4	3.4	3.4	3.4	4.793	3.4	3.4	2.04	2.74	3.4	4.813	3.4	3.4	3.4	3.4	3.4	3.4	2.707	3.4	3.4	4.813	3.627	3.087	4.12	3.4	3.4	4.813	3.4	4.453	3.78	3.78	3.4	3.4	3.4	3.433	3.4	2.38	3.76	3.4	2.72	3.4	3.4	3.4	4.12	3.4	3.78	4.467	3.08	4.467	3.433	3.773	3.773	3.4	4.12	4.12	4.813	4.467	3.4	3.4	3.073	3.4	3.4	2.34	3.74	3.413	3.4	3.4	3.4	4.06	2.713	3.4	2.36	3.4	4.087	3.693	1.353	2.733	4.087	4.12	2.64	2.74	3.74	3.76	3.4	4.08	2	3.407	3.78	3.773
record-432131	3.74	3.4	5.64	4.76	3.74	3.4	3.74	3.4	3.74	3.74	6.24	3.74	5.64	4.52	6.607	6.76	3.74	6.76	3.74	3.74	6.76	3.4	3.74	6.607	5.64	5.64	3.4	4.52	4.953	3.867	3.74	3.74	3.74	3.74	3.74	3.74	0	6.76	5.64	3.74	3.74	3.74	3.74	4.433	3.74	3.527	3.74	6.76	5.64	3.4	3.373	5.64	5.64	3.74	6.607	3.187	3.373	3.74	3.527	5.127	3.74	3.74	3.74	4.953	5.127	3.74	6.76	3.527	3.74	3.74	3.373	3.74	6.76	5.64	3.74	3.373	3.74	3.74	3.74	6.033	3.74	3.74	5.64	3.373	5.293	4.52	3.74	6.607	6.76	5.64	3.74	3.74	3.74	3.74	5.64	3.74	3.74	3.74	3.74	3.74	5.64	3.74	3.74	5.64	3.867	3.74	6.607	5.293	3.74	5.64	3.74	5.64	5.467	3.74	3.74	6.76	3.74	3.74	5.467	6.373	3.74	5.467	6.76	3.74	3.74	5.64	3.74	3.74	5.64	3.74	4.52	3.4	3.74	6.373	6.76	6.76	3.74	3.74	4.76	6.76	5.64	3.74	6.76	3.74	3.74	3.74	6.76	4.52	3.74	3.74	6.76	3.74	3.4	4.76	5.64	6.76	3.4	5.64	6.36	4.76	3.74	3.74	3.74	3.74	3.74	6.76	6.76	4.52	6.76	6.76	5.64	5.633	4.76	6.76	3.74	6.76	3.4	6.76	3.74	3.74	3.4	5.64	3.74	3.74	5.64	3.74	6.76	5.64	6.36	5.64	6.76	3.74	6.607	3.74	3.4	6.76	4.76	4.52	5.64	4.52	3.74	3.74	3.74	5.64	3.74	3.74	4.52	3.74	5.64	4.793	4.52	6.76	3.74	3.527	4.433	3.74	4.953	3.74	5.64	3.74	6.607	5.94	3.74	3.527	3.74	3.527	3.74	5.127	3.527	6.76	5.64	3.527	4.433	6.76	5.64	3.74	3.74	3.74	3.74	5.64	5.34	3.74	4.52	4.52	4.433	3.74	3.74	3.74	3.74	6.753	3.74	3.74	3.74	3.74	5.64	3.74	3.187	5.127	4.547	3.74	6.76	3.74	3.74	3.74	3.527	3.74	3.74	3.74	3.187	3.74	5.127	3.74	3.74	3.74	5.113	6.76	6.76	6.687	3.74	3.527	5.64	3.74	3.74	4.953	4.953	3.74	3.74	6.76	3.74	6.76	6.687	3.74	4.433	5.64	3.74	3.74	3.74	6.607	3.713	6.607	3.74	3.74	4.953	5.127	5.64	5.64	3.74	3.4	3.713	3.713	6.76	6.76	3.527	3.74	3.74	3.74	3.74	3.74	3.74	4.52	3.74	5.64	5.34	3.74	3.74	3.74	3.74	3.74	3.74	4.52	3.74	3.74	3.4	6.607	3.74	3.74	3.74	6.76	5.127	3.74	3.74	3.74	3.74	5.64	3.74	4.52	3.74	3.74	3.74	3.74	3.74	3.74	3.74	3.74	3.713	4.433	3.4	5.64	3.74	5.293	3.867	3.74	3.74	3.74	3.74	6.76	6.76	3.4	3.74	6.76	5.64	3.74	6.607	3.74	3.74	3.74	3.74	3.74	6.687	5.78	5.467	3.713	6.76	3.74	3.74	3.74	3.74	3.74	3.74	3.74	6.76	6.76	5.64	5.64	3.74	3.74	3.74	3.74	3.74	3.74	3.74	3.74	3.74	3.74	3.74	3.74	6.373	6.76	5.64	3.74	3.74	6.607	3.74	3.74	3.74	3.74	3.74	3.74	3.74	3.74	6.76	3.74	3.74	5.64	6.76	3.74	3.74	3.74	3.4	3.74	6.76	3.74	3.74	3.74	3.74	3.74	3.4	3.74	3.74	6.76	5.64	3.74	3.74	3.74	3.74	3.74	3.74	3.74	6.58	3.74	3.74	5.127	5.64	3.74	3.74	5.64	3.74	4.52	3.527	3.74	4.787	6.76	6.607	3.187	5.127	3.4	6.607	3.74	2.353	5.64	5.64	4.76	5.64	5.453	3.4	4.52	3.74	5.64
record-432717	2.26	3.828	2.368	1.876	4.18	2.172	3.74	4.3	3.412	1.96	2.12	1.664	2.752	2.144	1.056	2.208	1.664	1.736	3.74	1.664	2.181	2.644	1.664	3.568	2.96	3.64	3.444	3.712	1.957	3.701	3.916	3.412	2.037	2.004	1.62	2.468	3.011	0	0.832	3.74	3.324	3.74	3.74	2.357	1.664	2.331	2.344	2.888	2.752	2.852	2.084	1.896	3.256	3.74	2.208	2.852	2.084	3.236	2.084	2.084	3.796	3.412	2.027	1.957	1.056	2.468	1.056	2.331	1.876	1.664	2.084	0.948	2.208	1.6	1.664	1.492	1.664	3.028	3.028	2.468	2.644	1.28	3.136	1.492	1.216	2.528	1.876	2.12	2.976	1.216	1.664	3.324	4.092	0.948	0.832	1.664	2.468	3.412	3.796	1.396	1.984	1.664	1.876	0.832	1.216	3.708	1.736	2.133	3.324	2.752	3.708	2.752	3.011	4.092	3.028	2.888	3.324	3.708	3.011	3.148	1.664	2.416	3.952	3.324	3.028	3.432	3.62	3.324	2.664	3.324	1.672	3.708	4.092	3.148	4.16	3.272	3.708	3.74	2.94	3.272	1.896	2.852	2.12	3.62	2.852	3.708	4.16	3.888	3.74	3.74	2.504	3.74	3.62	2.172	2.576	3.184	3.236	2.576	3.916	2.852	3.74	3.74	3.74	4.004	4.004	3.096	3.184	3.888	3.568	3.568	2.96	4.349	2.468	4.248	4.004	4.52	2.764	2.8	3.74	3.74	3.828	2.872	3.74	3.74	4.024	3.74	3.864	3.552	3.74	4.147	4.544	1.664	1.44	3.028	2.644	1.44	1.876	2.912	1.6	2.528	2.26	4.092	2.94	2.28	3.74	3.324	3.712	3.028	1.984	3.68	0.992	2.208	2.468	1.957	2.468	1.876	1.957	1.876	0.832	3.412	1.44	2.181	3.028	2.084	3.028	2.084	1.664	2.084	2.084	3.744	3.52	3.109	2.468	2.592	1.984	1.78	1.62	3.028	1.876	1.984	3.028	2.468	1.76	2.912	2.468	2.644	2.644	2.852	2.504	1.44	1.78	3.412	3.74	3.412	2.752	1.876	2.368	1.876	1.332	3.236	1.44	3.028	2.004	1.876	2.084	1.664	1.396	3.412	2.637	2.172	2.331	2.12	3.412	1.876	1.876	2.208	1.824	1.556	3.74	1.6	4.288	1.28	3.028	1.957	1.957	3.74	2.26	2.208	4.092	1.824	1.492	3.412	2.468	0.832	2.644	1.664	1.172	1.876	1.492	2.331	2.94	1.396	0.832	2.331	2.368	3.136	1.504	1.492	2.26	1.492	1.824	2.592	1.736	3.412	2.94	3.236	1.664	1.28	2.94	0.992	1.664	1.984	2.852	4.18	3.324	3.796	2.172	3.796	3.796	1.376	3.708	3.412	1.481	2.331	3.412	3.028	3.412	3.36	2.12	3.236	1.664	3.412	3.028	2.96	2.26	1.288	3.028	4.18	2.94	2.556	1.664	4.18	3.324	1.396	2.468	3.62	1.108	2.752	3.412	1.6	2.637	1.28	1.664	3.324	3.324	2.976	2.888	3.708	2.94	2.976	1.512	2.94	1.736	1.664	2.172	3.236	3.708	3.74	2.172	2.852	2.416	2.852	1.736	3.412	3.916	2.94	3.708	2.94	3.62	3.708	2.888	1.824	2.664	3.048	3.324	3.412	2.852	2.172	3.412	3.74	3.74	4.092	4.092	2.94	3.324	3.324	3.148	2.504	3.816	3.708	3.62	2.12	3.324	3.74	4.004	4.092	3.708	4.092	4.004	4.004	2.888	3.74	3.324	2.96	4.336	2.852	3.74	3.74	3.708	3.74	3.952	3.74	3.74	3.74	4.004	3.74	3.62	3.74	3.62	2.8	2.96	3.74	3.74	3.74	3.74	3.74	3.74	3.74	2.416	3.412	3.412	2.084	3.432	1.62	3.74	1.984	3.028	2.528	3.444	1.28	2.12	1.44	3.776	2.637	2.084	2.26	3.36	1.664	2.172	1.216	1.984	1.492	1.216	1.556	2.468	2.528	3.412	3.64
record-434202	2.38	3.033	3.387	2.96	2.38	2.367	2.38	3.06	2.38	2.38	2.793	2.38	3.387	2.68	1.92	2.38	2.38	2.38	2.38	2.38	2.38	3.033	2.38	3.067	3.32	3.32	2.367	2.68	2.193	3.013	2.38	2.38	2.38	2.38	2.38	2.38	2.373	2.38	0	2.38	2.38	2.38	2.38	3.04	2.38	2.033	2.38	2.38	3.153	2.367	1.893	2.813	3.32	2.38	3.067	2.373	1.893	2.38	2.033	2.38	2.38	2.38	2.38	2.36	2.38	2.38	2.38	2.033	2.38	2.38	1.893	1.747	2.38	3.007	2.38	2.28	2.38	2.38	2.38	3.047	2.38	2.38	3.387	2.28	2.64	2.68	2.38	2.707	2.38	2.473	2.38	2.38	2.38	1.747	1.907	2.38	2.38	2.38	2.38	2.38	3.32	2.38	2.38	1.907	2.1	2.38	2.26	2.38	2.38	3.32	2.38	2.96	2.72	2.38	2.38	2.38	2.38	2.38	2.72	3.387	2.38	2.72	2.38	2.38	2.38	3.32	2.38	2.38	3.32	2.38	2.28	3.06	2.38	3.387	2.38	2.38	2.38	2.38	3.06	2.38	2.813	2.38	2.38	2.38	2.38	2.38	2.38	2.68	2.38	2.38	2.38	2.38	3.033	2.767	3.153	2.38	2.367	3.153	3.427	3.06	2.38	2.38	2.38	2.38	2.38	2.38	2.38	2.68	2.38	2.38	3.387	3.613	2.767	2.38	2.38	2.38	2.367	2.38	2.38	2.38	3.033	2.96	2.38	2.38	3.387	2.38	2.38	2.72	3.427	3.32	2.38	2.38	2.453	2.38	3.06	2.38	3.06	2.68	3.007	2.68	2.38	2.38	2.38	3.32	2.38	2.38	2.68	2.38	3.32	2.373	1.94	2.38	2.38	2.013	2.7	2.38	2.193	2.38	1.907	2.38	2.453	2.387	2.38	2.033	2.38	2.033	2.38	2.38	2.033	2.38	3.32	2.693	2.7	2.38	2.72	2.38	2.38	2.38	2.38	3.32	2.707	2.38	2.68	2.427	2.7	2.38	2.38	2.38	2.38	2.38	2.38	2.38	2.38	2.38	3.32	2.38	2.353	2.38	2.1	2.38	2.38	2.38	2.38	2.38	2.033	2.38	2.38	2.38	2.353	2.38	2.38	2.38	2.38	2.38	2.787	2.38	2.38	2.793	2.38	2.013	3.387	2.38	2.38	2.36	2.193	2.38	2.38	2.38	2.38	2.38	3.113	2.38	2.7	1.92	2.38	2.38	2.28	2.707	2.28	2.707	2.38	2.38	2.107	2.38	3.387	2.72	2.38	2.093	2.233	2.28	2.38	2.38	2.033	2.38	2.38	2.38	2.38	2.38	2.38	1.94	2.38	2.72	3.367	2.38	2.38	2.38	2.38	2.38	2.38	2.28	2.38	2.38	1.907	2.6	2.38	2.38	2.38	2.38	2.38	2.38	2.38	2.38	2.38	3.32	2.38	1.747	2.38	2.38	2.38	2.38	2.38	2.38	2.38	2.38	2.233	3.08	2.087	3.153	2.38	2.387	2.353	2.38	2.38	2.38	2.38	2.38	2.38	3.06	2.38	2.38	2.28	2.38	2.793	2.38	2.38	2.38	2.38	2.38	3.407	3.08	2.72	2.233	2.38	2.38	2.38	2.38	2.38	2.38	2.38	2.38	2.38	2.38	3.32	3.32	2.38	2.38	2.38	2.38	2.38	2.38	2.38	2.38	2.38	2.38	2.38	2.38	3.387	2.38	3.32	2.38	2.38	2.793	2.38	2.38	2.38	2.38	2.38	2.38	2.38	2.38	2.38	2.38	2.38	3.32	2.38	2.38	2.38	2.38	3.033	2.38	2.38	2.38	2.38	2.38	2.38	2.38	3.06	2.38	2.38	2.38	3.32	2.38	2.38	2.38	2.38	2.38	2.38	2.38	2.6	2.38	2.38	2.38	2.72	2.38	2.38	3.32	2.38	2.68	2.713	2.38	2.72	2.38	3.067	2.353	2.38	2.927	3.067	2.38	2.76	2.473	2.72	2.62	2.473	2.447	2.367	2.68	2.38	3.32
record-434869	4.08	3.74	4.854	5.1	5.257	3.74	4.08	3.74	5.581	3.85	3.797	4.08	4.854	3.803	3.924	4.893	4.08	4.864	5.984	4.893	5.17	3.74	4.08	4.166	4.854	5.945	3.371	4.491	5.218	3.544	3.955	5.257	4.651	4.53	5.619	4.709	2.864	4.08	4.854	0	5.248	5.257	5.581	2.888	4.08	3.204	5.096	4.08	4.295	2.692	4.345	5.218	4.854	5.945	4.166	2.864	3.544	4.08	3.204	4.005	5.945	4.08	4.295	4.005	4.005	4.709	4.08	3.204	5.218	4.08	3.711	4.051	5.823	4.08	4.08	4.854	4.08	6.308	5.945	4.369	5.218	4.08	4.854	4.345	3.665	3.803	5.17	4.166	5.218	4.893	4.08	5.436	4.08	4.051	5.581	4.08	4.53	4.08	5.62	6.308	5.62	6.308	5.218	4.491	2.759	5.257	4.166	3.22	4.893	4.854	4.08	4.491	3.665	4.08	4.08	5.218	4.08	4.08	3.665	4.029	4.08	3.665	5.984	4.08	4.08	4.893	4.08	6.672	4.854	4.08	4.08	3.371	4.08	4.029	5.218	5.218	4.08	5.436	4.08	5.581	4.08	5.862	4.08	5.62	4.893	4.08	5.218	4.491	5.436	5.436	4.08	5.218	3.74	5.327	5.945	4.08	3.74	4.08	4.158	4.08	4.08	4.08	5.248	4.08	4.08	4.854	5.218	5.218	4.08	5.945	4.166	4.005	4.08	6.163	4.08	5.257	3.74	5.581	4.08	5.257	3.74	4.491	4.08	5.072	4.854	4.635	5.945	3.803	4.272	5.218	5.581	5.581	4.166	4.893	3.372	5.581	5.1	4.491	4.08	5.218	3.85	4.08	4.08	4.08	5.581	5.257	4.491	4.08	4.53	3.439	5.218	4.893	3.908	3.204	3.568	5.976	4.806	4.08	4.08	3.955	4.166	3.924	4.08	3.204	3.85	3.204	5.581	4.005	3.204	5.945	5.218	3.204	3.568	5.581	3.803	5.064	4.893	4.999	5.218	4.08	3.932	3.908	4.491	5.722	3.568	4.08	4.08	4.732	5.072	5.218	5.072	4.08	5.581	4.08	5.218	4.709	2.864	4.005	3.544	5.096	4.08	5.581	5.945	5.17	3.204	5.218	5.064	5.581	2.864	4.08	4.005	4.08	4.08	4.369	3.123	4.08	4.08	4.158	5.581	3.204	4.854	5.984	5.257	4.005	4.345	6.308	4.08	4.08	4.08	4.08	4.806	4.08	3.568	4.854	5.557	5.945	4.08	4.166	4.806	4.166	4.08	4.53	3.325	4.005	4.854	3.803	6.308	3.371	3.371	4.806	4.53	5.218	3.204	4.08	4.893	4.651	4.08	4.08	4.635	4.491	4.08	3.803	3.932	6.308	5.436	4.08	4.08	5.046	5.436	4.166	5.436	4.08	3.372	4.166	4.08	4.08	6.163	5.257	4.005	5.096	4.08	4.08	4.53	5.218	5.193	4.08	4.53	4.08	5.945	5.072	4.08	5.581	4.08	5.064	3.955	2.888	3.74	4.08	4.08	4.806	2.759	4.08	4.08	6.308	4.08	4.08	4.08	3.74	4.08	4.08	4.08	4.08	4.369	4.08	4.021	4.08	5.984	4.08	4.806	4.345	3.665	3.85	4.08	4.08	3.681	5.533	4.08	5.218	4.635	4.08	4.08	5.218	4.893	5.581	4.08	4.08	4.021	4.051	4.08	4.08	5.581	4.08	4.08	5.193	4.08	4.08	4.029	5.581	6.308	4.08	4.975	3.924	4.08	5.581	4.08	4.08	4.08	4.08	5.436	4.08	5.945	5.581	4.08	6.672	5.257	4.08	4.404	6.308	3.74	4.08	5.218	4.08	5.436	4.08	4.08	6.308	3.74	4.08	4.53	5.218	5.218	4.893	5.436	6.308	5.945	5.945	5.581	4.53	4.137	5.581	5.581	4.005	3.803	4.53	4.53	4.08	4.53	4.491	3.204	4.08	3.665	5.257	4.166	2.864	4.005	2.692	4.166	4.08	3.74	4.08	3.803	5.1	5.218	3.908	3.372	4.854	4.08	5.218
record-436026	3.06	3.74	3.956	3.304	4.512	2.938	4.416	3.74	4.512	4.228	3.09	3.655	3.956	3.501	3.008	4.234	3.995	2.956	4.512	3.995	3.869	3.74	3.995	3.432	3.779	3.956	2.938	3.653	3.439	3.663	4.497	4.076	3.989	4.05	3.06	4.883	3.843	3.717	3.018	4.45	0	4.512	4.512	3.936	3.995	3.838	4.389	4.22	3.956	2.938	3.894	3.099	3.779	4.512	3.432	3.843	3.919	3.06	3.838	3.554	4.79	3.655	4.166	3.154	3.554	4.172	3.296	3.838	4.45	3.995	3.234	3.385	4.234	3.86	3.995	4.172	3.995	4.973	4.273	3.832	4.45	3.574	3.956	3.894	2.964	3.653	4.45	3.09	4.22	3.439	3.995	4.767	4.498	3.385	3.018	3.995	4.172	4.512	4.512	4.737	3.86	3.995	4.45	2.694	3.28	4.729	3.894	2.964	3.225	3.779	4.076	2.814	3.554	4.498	4.416	4.22	3.655	3.995	3.554	3.832	3.234	3.554	4.234	5.015	4.076	3.956	5.026	5.107	3.779	4.228	2.821	3.74	4.416	3.832	4.234	4.057	4.076	4.389	3.74	4.234	3.099	3.41	3.377	3.06	3.989	4.076	4.234	3.653	4.729	4.05	3.798	3.37	3.74	3.223	3.439	4.138	2.938	3.439	3.88	3.644	4.416	4.729	4.512	3.995	3.995	3.092	4.057	3.653	4.234	4.234	3.86	3.956	3.223	4.234	3.995	4.234	2.598	3.717	4.512	4.512	3.74	2.814	4.335	4.11	3.956	4.224	4.234	3.154	3.946	3.956	4.234	3.995	3.43	4.416	3.74	3.717	3.74	3.653	3.52	3.653	4.166	4.498	3.807	3.52	4.512	3.655	3.653	4.416	3.956	2.876	3.161	4.234	3.894	3.658	3.554	4.284	2.906	3.06	3.018	4.11	3.43	3.432	4.416	3.838	4.497	3.838	3.995	3.554	3.838	4.234	3.956	3.663	3.554	4.234	3.154	4.729	4.24	4.416	4.45	3.956	4.214	3.894	3.653	2.536	3.554	3.06	3.06	4.147	4.45	3.717	4.11	4.512	4.512	4.512	3.956	4.172	3.663	3.554	3.39	4.389	3.717	4.416	4.588	4.11	3.838	3.37	3.06	4.335	3.663	2.964	3.554	3.06	4.512	4.172	3.554	4.234	2.956	3.832	4.512	3.658	3.956	3.574	4.416	2.906	2.814	4.512	3.06	4.234	4.498	2.956	3.832	4.512	3.554	3.018	4.667	3.995	3.807	3.432	4.172	3.894	4.686	3.601	2.73	3.554	3.956	3.154	3.995	2.595	2.801	4.172	4.138	3.798	3.875	4.512	3.539	3.989	3.995	3.574	3.62	3.161	3.995	3.154	3.832	4.512	4.767	4.076	2.964	4.512	4.389	2.821	3.933	4.512	2.461	3.008	4.498	4.416	4.512	4.234	3.554	4.729	3.995	4.416	3.71	3.956	4.389	2.399	3.71	4.512	3.826	4.068	3.995	4.512	4.228	4.228	4.166	3.554	3.223	3.439	4.498	2.992	3.318	3.574	3.995	3.655	5.015	4.22	4.22	3.74	5.412	4.234	2.678	3.807	2.668	3.995	2.964	4.211	4.076	4.512	4.599	3.554	3.554	4.492	2.956	4.498	4.172	5.155	4.076	4.829	3.96	4.076	4.22	4.138	3.942	3.956	3.655	4.512	3.06	2.964	3.655	4.512	4.512	4.498	4.416	5.155	3.655	3.655	4.172	3.798	3.956	4.076	3.966	3.09	3.655	4.512	4.729	4.498	4.076	4.498	4.389	3.995	4.22	4.512	3.655	3.86	4.234	3.06	4.224	4.512	3.74	4.416	4.234	4.416	4.729	4.416	3.995	4.512	3.74	4.512	3.286	3.717	3.86	4.512	4.729	4.335	4.512	4.512	4.512	3.71	3.432	4.512	4.512	3.554	3.154	3.966	3.71	3.956	3.71	3.653	3.843	3.574	3.554	3.717	3.432	3.663	3.843	3.481	3.432	3.995	3.304	2.906	3.154	3.644	3.439	3.668	2.938	3.653	3.995	3.956
record-447312	1.7	2.278	2.467	2.38	3.365	1.309	3.099	2.646	2.997	2.684	1.763	3.099	2.467	2.202	1.763	3.101	3.099	3.101	3.099	2.997	2.732	2.278	3.099	1.763	2.859	2.859	1.309	2.202	2.859	2.116	2.684	3.365	2.293	1.7	1.7	1.7	1.89	2.834	2.467	2.684	3.365	0	2.997	2.381	3.099	1.89	2.949	2.834	2.859	1.309	1.7	2.859	2.859	3.365	1.763	1.89	1.7	1.7	1.89	2.154	3.63	3.099	2.684	1.498	2.154	1.7	2.834	1.89	1.7	3.099	3.099	1.7	2.834	2.859	3.099	1.7	3.099	3.526	3.261	2.419	1.7	3.099	2.467	1.7	1.498	2.202	1.7	1.763	2.732	2.859	3.099	2.949	3.099	1.7	2.859	3.099	2.028	3.099	3.099	3.526	2.859	3.099	1.7	2.518	2.116	2.557	1.763	1.498	2.293	2.859	3.099	2.518	2.154	3.099	3.099	2.732	3.099	3.099	2.154	2.419	3.099	2.154	2.834	1.7	3.099	2.859	1.7	1.7	2.859	1.7	1.991	2.38	3.099	2.419	2.732	2.834	3.099	2.949	2.38	3.101	2.859	2.293	2.834	2.822	2.293	3.099	2.732	2.202	2.949	2.949	2.834	3.048	2.278	2.38	2.859	2.834	1.309	2.859	2.443	2.38	3.099	1.7	3.365	3.099	3.099	2.783	2.834	1.991	2.834	2.834	2.467	3.007	2.38	2.834	3.099	2.834	2.329	3.101	3.099	3.365	2.278	2.518	3.099	2.684	2.467	2.684	2.834	1.498	2.443	2.859	3.101	2.997	1.763	2.997	2.38	3.101	2.38	2.202	2.859	1.991	2.684	3.099	1.7	2.859	2.997	3.365	2.202	3.099	2.859	1.234	1.991	3.101	1.7	2.116	2.154	3.099	2.859	1.7	2.859	2.684	1.763	1.763	3.099	1.89	2.684	1.89	2.997	2.154	1.89	2.834	2.859	2.116	2.154	3.101	1.498	1.7	2.293	2.997	1.7	2.859	2.419	1.7	2.202	1.991	2.154	1.7	1.7	2.684	1.7	2.732	2.684	3.099	2.997	3.099	2.859	1.7	2.116	2.154	1.914	2.949	2.834	2.997	3.261	2.684	1.89	3.048	1.7	2.997	2.116	1.7	2.154	1.7	3.099	1.7	2.154	2.834	2.834	2.419	2.997	2.116	2.467	3.099	3.365	3.007	2.518	3.099	1.7	2.834	3.099	2.834	2.419	3.099	2.154	2.467	3.213	3.365	1.7	1.763	1.7	1.763	1.7	2.028	1.498	2.154	2.467	1.498	3.099	1.309	1.7	1.7	2.732	2.732	1.89	3.099	2.293	2.293	3.099	3.099	2.684	1.991	3.099	1.498	2.419	3.099	2.949	3.099	1.7	3.099	2.949	1.991	2.949	3.099	2.278	1.763	3.099	3.099	3.099	2.834	2.154	2.949	3.099	3.099	2.028	2.859	2.949	1.991	2.028	3.099	3.261	2.684	3.099	2.997	1.7	1.7	2.684	2.154	2.38	2.859	3.099	2.859	2.116	3.099	3.099	3.099	1.7	2.834	2.834	2.646	1.7	2.834	2.859	1.7	1.763	3.099	1.7	3.629	3.099	3.099	2.419	2.154	2.154	2.684	2.834	3.099	3.364	2.949	3.099	3.629	2.684	3.099	2.834	2.732	2.859	2.859	3.099	3.099	1.7	3.099	3.099	3.099	2.997	3.099	3.099	2.949	3.099	3.099	2.419	3.101	2.859	3.099	1.7	1.763	3.099	2.997	1.7	3.099	3.099	3.099	2.949	3.099	2.834	2.997	3.099	2.859	2.834	1.7	2.684	3.099	2.278	3.099	2.732	3.099	2.949	3.099	3.099	3.099	2.38	3.099	2.028	2.834	2.859	2.997	2.949	3.099	3.365	3.365	2.997	2.028	1.763	2.997	2.997	2.154	1.498	1.7	2.028	2.859	2.028	2.202	1.89	3.099	2.154	2.834	1.763	2.116	2.154	2.278	1.763	3.099	2.278	2.859	1.498	2.38	2.859	2.178	1.309	1.991	3.099	2.859
record-86	8.049	6.8	7.347	6.8	8.234	6.257	8.234	6.8	8.234	9.443	7.247	7.645	7.347	7.682	6.469	7.79	7.645	6.816	8.234	7.645	7.103	6.8	7.645	7.247	7.908	7.347	6.257	7.682	6.659	6.667	7.997	8.234	8.845	9.678	8.049	9.254	6.667	7.202	6.033	10.704	7.985	8.234	0	7.11	8.207	6.659	11.044	7.79	7.347	6.257	8.81	7.098	7.908	8.234	7.247	6.667	9.237	6.12	6.659	7.11	8.677	7.985	8.035	6.652	7.11	9.254	6.476	6.659	10.414	7.645	7.26	5.871	7.79	7.347	7.645	8.989	7.645	9.5	8.089	7.554	11.865	6.92	7.347	8.198	6.751	7.682	10.414	7.247	7.79	6.758	7.645	8.441	8.234	5.871	6.033	7.645	9.688	8.234	8.234	7.323	7.347	7.645	8.972	5.803	6.667	10.574	9.244	6.804	7.696	7.908	8.234	6.732	7.11	8.234	8.234	7.79	7.985	8.234	7.11	7.554	7.26	7.11	7.79	9.316	8.234	7.347	10.141	10.141	7.908	10.95	7.433	6.8	8.234	7.554	7.79	8.352	8.234	8.441	6.8	7.79	7.098	10.602	7.542	9.021	8.134	8.795	7.79	7.682	11.147	10.357	7.79	7.619	6.8	6.8	7.347	7.79	6.257	7.347	8.954	6.8	8.234	10.141	8.234	8.234	8.234	7.175	8.352	7.682	7.79	7.79	7.347	7.347	7.361	7.79	8.234	7.79	6.323	7.79	8.234	8.234	6.8	6.732	8.795	7.997	7.347	7.997	7.79	6.804	7.554	7.347	7.79	7.645	7.195	8.234	6.8	7.202	6.8	7.682	7.347	7.682	8.035	8.234	10.95	7.347	8.234	7.985	7.682	8.234	7.347	6.36	7.093	7.79	9.143	6.659	7.103	8.99	7.221	7.323	6.033	7.997	7.195	7.096	8.234	6.659	7.997	6.659	7.645	7.11	6.659	7.79	7.347	6.667	7.103	7.79	6.804	11.839	8.849	8.234	10.414	7.347	7.546	9.143	7.682	6.455	7.103	8.774	8.774	7.546	11.758	9.305	9.433	8.234	8.234	8.234	7.347	8.972	6.667	7.11	6.667	8.441	7.202	8.234	8.677	10.106	6.659	7.416	7.323	8.234	6.667	6.12	7.11	11.032	8.234	9.623	7.142	7.79	6.816	8.99	8.234	6.659	7.347	6.92	8.234	6.732	6.43	8.234	8.049	7.79	8.234	6.816	9.662	8.234	7.103	6.033	10.993	7.645	6.597	7.247	8.989	9.773	11.009	7.585	6.026	7.11	7.347	6.804	7.645	6.257	8.049	8.989	7.79	7.79	6.659	8.234	8.134	7.983	7.645	6.92	7.997	7.093	7.645	6.804	7.546	8.234	8.441	8.234	6.12	8.234	8.441	7.433	8.429	8.234	5.826	7.149	8.234	8.234	8.234	7.79	7.11	11.147	7.645	8.234	7.69	7.347	10.549	6.707	7.69	8.234	8.375	7.997	7.645	8.234	6.12	7.323	7.997	7.11	6.211	7.347	8.234	7.561	6.667	6.92	7.645	7.985	9.316	7.79	7.79	6.8	10.584	7.79	6.373	6.12	7.521	7.645	6.12	8.506	8.234	8.234	10.368	7.11	7.11	8.029	6.816	8.234	9.254	11.255	8.234	9.697	7.997	8.234	7.79	7.79	7.347	7.347	7.985	8.234	6.12	7.985	7.985	8.234	8.234	8.234	8.234	8.441	7.985	7.985	10.26	7.79	7.347	8.234	10.558	7.959	8.547	8.234	10.141	8.234	8.234	8.234	8.441	8.234	7.79	8.234	7.985	7.347	7.79	8.025	7.997	8.234	6.8	8.234	7.79	8.234	11.147	8.234	8.234	8.234	6.8	8.234	7.593	8.352	7.347	8.234	11.147	8.795	8.234	8.234	8.234	7.69	7.149	8.234	8.234	7.11	6.804	8.953	7.69	7.347	7.69	7.682	6.667	6.92	7.11	7.202	7.247	6.667	9.026	6.8	7.247	8.207	7.361	6.732	6.804	6.8	6.758	7.11	6.257	7.682	8.234	7.347
